filtered_ecg,-41.379061,-41.293169,-41.207676,-41.122580,-41.037881,-40.953577,-40.869668,-40.786153,-37.693702,-35.604724,-35.522309,-36.443346,-37.364734,-36.280263,-34.193032,-32.106131,-31.022648,-33.951904,-34.875267,-33.792748,-30.704334,-28.619327,-28.540814,-29.465687,-28.384624,-29.310054,-27.226438,-21.130645,-16.038166,-9.942732,-8.862942,-1.764580,-1.688002,-2.614550,-9.559781,-9.483336,-11.413203,-11.336960,-10.257717,-11.184791,-11.108865,-13.039264,-18.982228,-18.906717,-18.831388,-20.762460,-21.690622,-23.622103,-29.566251,-32.501354,-34.433661,-32.353862,-32.280594,-31.204527,-36.147419,-38.081331,-35.000061,-31.919129,-29.841614,-34.786154,-36.721701,-37.654492,-37.584536,-38.518053,-37.445721,-37.376860,-41.320798,-39.246476,-36.169423,-32.089609,-32.022543,-33.962005,-40.917343,-46.869965,-46.804381,-45.736139,-36.643461,-8.492052,31.696590,82.919744,140.162354,204.428084,251.642920,247.701591,197.619606,130.486662,76.395401,32.335973,5.329720,-2.617397,-13.573869,-22.524253,-22.446867,-22.369697,-23.295853,-25.225343,-32.170624,-37.109996,-37.034177,-41.974264,-43.905426,-47.843231,-50.778388,-51.707815,-45.615973,-46.546337,-45.470932,-47.405293,-52.349441,-50.272326,-47.192585,-48.125739,-47.053136,-47.987207,-49.924850,-51.862974,-48.786050,-46.712706,-48.652251,-49.589155,-48.520318,-46.448838,-47.387136,-46.319671,-47.258872,-47.195419,-50.141750,-46.066796,-46.004726,-42.933769,-41.869446,-44.817966,-47.766917,-45.700780,-43.635084,-41.569809,-42.514263,-44.462237,-46.410639,-44.347051,-41.280780,-38.214907,-40.164950,-42.115381,-45.069328,-46.017489,-38.941217,-36.880869,-37.830205,-36.773687,-34.714413,-31.652364,-31.599950,-31.547840,-29.489815,-31.444512,-31.393294,-26.326830,-25.273058,-23.216421,-23.166226,-23.116255,-22.063397,-18.001422,-14.942731,-13.890403,-13.841319,-11.786149,-8.727983,-4.666791,-2.611864,-1.560071,1.497926,4.555937,4.604663,6.659653,8.714707,10.769845,13.828197,14.880462,12.923542,14.979186,18.038083,22.100264,19.140890,16.181701,16.231997,16.282449,18.339278,18.390064,14.428589,8.461033,7.509107,6.557254,6.608574,4.653738,-0.310382,-4.271396,-6.226231,-8.181126,-9.132991,-10.084944,-12.040103,-13.995379,-15.950789,-17.906353,-16.852761,-19.811770,-21.767860,-24.727270,-26.683808,-23.625056,-23.575860,-21.520672,-20.468801,-25.435786,-29.399906,-29.351871,-31.310338,-27.250449,-27.203261,-24.147007,-28.112752,-29.069440,-26.013970,-26.971189,-26.925558,-27.883297,-27.838194,-27.793360,-26.745684,-23.692047,-25.654187,-27.616573,-29.579226,-27.529726,-25.480491,-23.431501,-21.382738,-22.343509,-21.298277,-22.259469,-21.214656,-20.170048,-22.134964,-26.106312,-27.068582,-23.015566,-20.968990,-17.919507,-17.879526,-16.836608,-20.809400,-21.773063,-21.733827,-17.682362,-14.634177,-17.604791,-20.575575,-21.540337,-21.502198,-18.454937,-18.417183,-18.379606,-21.351536,-18.305013,-18.267996,-19.234264,-18.194499,-20.164238,-22.134172,-20.091880,-19.052891,-19.017196,-18.981684,-23.961904,-23.926806,-20.882610,-17.838615,-16.801011,-19.776008,-19.741867,-21.714135,-21.680393,-22.649970,-19.607327,-19.574202,-21.547484,-23.520975,-24.491582,-22.453097,-19.411718,-21.386075,-20.351309,-19.316739,-20.288575,-20.257496,-18.220394,-18.189686,-19.162264,-22.141245,-22.111111,-20.074971,-19.042134,-21.018810,-22.995688,-24.972788,-20.931471,-21.905903,-19.871218,-16.833615,-22.824161,-25.805598,-21.765516,-18.728754,-15.692172,-16.668180,-17.644349,-18.620688,-24.612755,-17.564633,-18.541558,-18.515552,-18.489725,-18.464076,-18.438605,-16.407092,-16.381956,-17.360089,-17.335279,-16.307526,-13.273711,-10.240025,-10.215766,-12.197824,-13.176891,-13.152975,-11.122967,-9.093065,-2.047704,1.988309,3.015013,3.038636,11.087165,17.129581,18.156615,16.174495,9.176983,4.185778,3.207052,3.231467,5.262132,4.283519,3.304947,-0.682921,-4.670797,-3.643169,-3.618686,-1.588019,-4.572915,-7.557855,-8.536648,-13.527963,-13.503860,-18.495435,-17.468531,-18.448014,-16.418346,-14.388836,-14.365685,-16.348891,-17.329145,-24.328224,-23.302661,-23.280432,-20.249098,-17.217959,-18.199425,-21.187286,-23.172241,-18.135653,-14.102348,-15.084728,-18.073473,-25.074830,-24.051552,-25.034725,-24.011920,-24.995566,-26.982562,-6.901407,30.232546,74.388558,124.563945,185.774738,236.956226,252.028052,225.974811,168.827350,116.697065,70.586562,36.514056,19.494766,10.500540,0.503306,-0.465936,-2.438293,-6.416892,-12.401772,-15.377443,-20.359482,-26.344826,-28.317986,-33.300747,-31.262063,-29.223679,-27.185577,-25.147738,-27.122579,-31.103901,-35.085523,-36.058154,-33.018695,-29.979553,-33.962468,-31.927053,-33.904384,-29.863384,-30.838220,-29.807134,-30.782554,-34.767601,-36.746763,-35.716950,-30.675043,-29.645871,-31.626313,-32.603950,-32.578792,-30.547729,-28.516961,-28.492686,-28.468686,-31.454290,-32.433977,-32.410868,-31.384961,-29.356247,-28.330926,-31.318316,-34.306009,-32.278484,-29.248160,-26.218118,-25.194549,-28.183661,-31.173044,-28.144070,-25.115368,-23.090017,-24.074218,-24.055541,-26.043315,-27.028231,-21.994749,-18.967699,-18.950161,-17.929695,-19.918732,-17.895521,-14.869374,-13.849589,-16.842377,-13.816668,-16.809751,-13.784338,-10.759058,-5.727663,-1.699432,1.325673,-1.667868,0.354124,2.376119,5.401247,7.423317,7.439240,6.452124,8.474400,12.502977,15.528564,19.557411,21.580227,20.593922,21.614035,26.646795,25.661154,24.675760,26.699933,23.708816,25.733475,25.752163,24.767989,26.793383,23.803487,24.826260,24.846162,23.863193,21.877345,17.885489,15.900025,11.908494,10.926407,11.950645,13.978108,10.990157,4.992983,3.008296,2.026748,3.051438,3.073048,2.091579,-3.905419,-4.886907,-5.868441,-4.843813,-4.822341,-5.804025,-9.795094,-11.780039,-11.758877,-10.734719,-8.707555,-8.686695,-11.675247,-13.660801,-10.630940,-9.607400,-8.583953,-12.576136,-12.556002,-13.539100,-10.509888,-10.490108,-8.464209,-11.453940,-10.431342,-9.408845,-10.392659,-9.370353,-11.357466,-8.329141,-8.310225,-8.291389,-7.269523,-6.247727,-5.225992,-4.204307,-4.185772,-6.173497,-7.158171,-4.130476,-5.115260,-3.090764,-6.081846,-8.069876,-8.051766,-4.021294,-3.000190,-1.979115,-1.961169,-2.946351,-1.925343,-2.910572,-0.886500,-0.868656,-1.853931,-5.848552,-5.830790,-3.806866,-0.779869,-1.765318,-4.757003,-5.742515,-4.721863,-1.695037,-1.677556,-1.660091,-1.642643,-1.625210,-2.610903,-2.593511,0.433185,-1.555664,-4.547637,-6.536544,-4.513075,-2.489650,-2.472469,-1.452201,-1.435057,-7.436585,-4.410198,-5.396292,-1.366890,-1.349939,-4.342330,-5.328544,-5.311700,-3.288687,-3.271926,-3.255196,-3.238498,-5.228050,-5.211433,-2.185537,-1.165882,-2.152457,-3.139053,-5.128789,-4.109246,-1.083522,-1.067139,-3.056984,-2.037530,-3.024316,-3.008020,-2.991754,0.033812,-0.953060,-2.943050,-4.933069,-3.913807,-3.897692,0.130824,-1.859317,-2.846366,-3.833442,-3.817446,-1.795267,1.230004,7.264616,5.274421,3.284277,4.303493,8.332079,10.354527,9.367746,8.381055,7.394444,5.404796,6.424528,8.447432,14.482856,16.505981,15.519936,22.558918,29.598117,31.622054,32.643185,27.645974,22.649029,21.664741,22.686881,20.699911,17.710030,15.723430,12.733872,14.759985,14.780021,16.806419,13.817431,10.828575,7.839824,8.863588,7.881217,4.892703,4.913565,0.922036,-5.075703,-4.051724,-3.027784,0.002346,-1.983072,-5.974728,-7.960223,-5.933355,-4.909655,-1.879783,-3.865477,-5.851208,-7.836996,-10.825969,-7.796388,-5.769993,-6.752982,-7.736035,-7.716054,-5.689928,-3.663857,-4.647150,-8.639817,-14.638786,-20.637896,-19.615438,-4.549634,23.556551,66.709608,112.872637,162.046084,222.255298,271.432449,287.509598,262.462023,207.323690,150.181135,98.055577,56.965170,37.943724,30.959960,16.954726,6.962095,4.994408,7.039207,6.074746,2.101014,-5.885136,-14.874453,-15.839036,-18.809991,-15.762469,-18.733757,-20.702116,-23.673784,-20.627023,-19.586680,-19.549635,-20.515888,-22.485449,-23.452117,-24.419011,-25.386140,-23.344185,-23.308674,-25.279608,-25.244566,-23.203548,-22.165863,-22.131501,-22.097353,-24.069637,-27.045263,-25.005601,-22.966181,-21.930091,-23.903542,-23.871004,-25.844915,-25.812856,-22.771717,-20.733907,-20.702517,-23.680655,-24.652802,-26.628296,-22.585389,-21.552028,-19.515766,-21.492130,-23.468702,-23.439281,-22.406976,-20.371777,-21.346103,-22.320636,-23.295383,-21.261026,-19.226874,-17.192908,-17.165326,-18.141020,-18.113779,-17.083603,-14.047372,-12.014386,-12.990845,-12.964319,-15.947248,-13.914782,-7.870012,-4.834646,-1.799327,-3.779573,-1.747418,-2.724608,0.310614,5.352059,9.390445,7.410264,7.436374,9.468775,11.501267,15.540089,20.582170,20.608902,18.629614,22.669162,25.705820,27.739615,28.770569,26.792471,28.827069,27.852617,29.887762,34.932524,30.949636,31.982595,31.009643,30.036989,33.077064,33.108129,33.139513,28.155668,24.175204,23.204302,22.233624,22.266270,19.289801,14.307299,12.334264,10.361348,7.385422,8.422006,4.443123,3.473612,-1.508304,-5.487126,-3.447342,-1.407592,-2.377184,-5.353018,-7.325794,-7.292422,-7.259120,-7.225888,-8.195835,-10.168971,-13.145314,-14.115565,-12.076623,-9.034688,-13.014607,-13.985323,-14.956174,-14.924060,-10.879650,-11.850894,-13.825361,-13.793743,-12.759148,-11.724676,-10.690317,-8.652951,-10.628107,-14.609585,-16.584985,-14.548106,-11.508258,-12.480959,-10.444451,-11.417373,-11.387295,-12.360437,-10.324369,-7.285291,-6.252503,-7.225994,-11.208883,-11.179443,-11.150109,-9.114665,-9.085527,-11.062696,-12.036862,-10.001815,-7.966865,-6.935101,-8.912733,-8.884231,-10.862035,-8.827504,-5.789949,-5.761779,-4.730554,-8.714924,-11.696268,-12.671505,-11.640645,-9.606788,-6.569914,-7.545541,-9.524351,-9.497034,-10.472917,-6.433354,-6.406291,-9.388618,-9.361708,-10.337997,-8.305057,-9.281526,-9.254974,-9.228512,-10.205249,-9.175865,-9.149678,-7.117361,-11.103770,-12.080957,-13.058261,-13.032581,-12.003917,-9.972259,-10.950026,-10.924789,-10.899657,-9.871521,-8.843480,-7.815524,-10.800082,-13.784744,-15.766429,-15.742047,-14.714707,-12.684400,-11.657324,-10.630361,-10.606610,-12.589180,-12.565652,-8.529807,-7.503374,-11.492560,-16.484967,-15.458875,-11.423604,-8.391552,-8.368910,-12.358787,-14.342564,-16.326479,-10.285674,-9.260517,-9.238559,-11.222909,-13.207367,-13.185733,-10.154898,-9.130379,-9.109059,-12.097155,-12.076038,-11.051929,-6.015487,-3.988433,-4.970746,-3.946887,-4.929286,-1.899293,0.127571,-0.854892,-2.840473,-3.822972,-2.799289,-0.772523,5.266675,8.296594,12.329702,13.353601,15.380738,15.401804,16.426128,17.450611,14.462823,11.475174,8.487637,6.503290,10.537664,9.556592,10.581831,7.594733,1.598380,-1.388629,-1.366322,-2.347139,-3.327978,-5.311958,-9.302209,-11.286331,-11.264342,-14.251790,-16.236266,-18.220899,-17.196379,-14.165805,-13.141587,-15.126824,-21.124646,-22.107123,-22.086704,-23.069607,-21.043404,-19.017403,-20.000915,-22.990839,-23.974765,-19.943375,-16.915286,-17.899798,-21.893813,-22.878709,-24.866935,-27.858511,-28.844136,-30.833149,-27.806911,-19.765393,9.341238,57.507041,103.667179,154.843865,206.022044,258.205319,282.304012,265.277932,214.148681,154.996617,100.861596,52.746205,25.696625,17.706375,12.725626,6.741889,-2.251112,-7.231695,-8.199910,-7.161985,-10.136567,-14.114357,-22.104721,-26.082860,-26.048812,-28.021234,-26.984597,-27.954440,-32.936990,-35.913639,-33.875086,-31.836860,-30.802050,-30.770646,-32.745759,-37.730516,-36.696979,-34.660686,-32.624727,-35.604631,-36.578659,-34.543710,-34.515314,-31.477922,-29.443942,-31.422685,-31.395512,-33.374861,-34.351422,-32.318985,-31.289969,-29.258145,-31.239042,-34.223349,-31.189329,-29.158719,-31.140828,-33.123238,-33.099748,-33.076577,-31.047505,-30.021842,-28.996469,-30.980704,-30.959019,-31.940742,-29.913443,-30.895762,-27.865940,-27.845716,-28.828870,-32.821631,-30.796050,-29.773876,-26.745769,-28.733468,-26.709006,-27.694131,-27.676412,-26.655851,-22.626218,-22.609241,-21.589373,-22.575932,-22.559600,-18.531046,-17.511999,-15.490012,-14.471284,-17.465134,-15.443604,-11.416003,-6.385403,-6.370413,-10.367923,-6.340655,-4.319668,0.710606,3.734668,6.758766,6.773600,8.794718,9.812812,13.840330,17.867980,17.883365,17.898922,15.908432,16.927424,22.962128,25.987724,29.013571,27.024149,26.038097,27.058516,28.079195,30.103255,31.124496,29.136707,28.152309,30.177511,27.187456,27.206992,26.223681,23.234403,18.239130,13.244032,14.267721,14.288437,11.299962,6.305376,1.310851,-1.677441,-3.662641,0.370783,-0.611339,-5.605905,-8.594305,-8.573460,-9.555807,-7.528917,-9.514538,-10.497141,-12.482955,-16.475109,-15.451873,-15.431896,-13.405848,-16.395478,-18.382156,-18.362792,-16.337386,-12.305918,-13.290117,-15.277554,-17.265138,-18.249779,-17.228376,-16.207139,-17.192278,-18.177583,-19.163063,-19.145618,-19.128358,-14.095733,-15.081903,-17.071327,-19.060916,-18.041360,-18.025088,-18.008989,-19.999283,-19.983551,-19.968011,-19.952664,-14.921961,-14.906950,-14.892082,-16.883578,-19.878346,-17.857757,-16.840450,-15.823306,-13.803204,-16.798783,-16.785196,-16.771771,-15.755397,-11.729846,-11.716847,-13.710181,-15.703646,-16.694153,-12.669273,-10.650735,-11.641627,-14.638852,-12.620669,-13.611937,-10.590898,-9.576180,-11.570883,-13.565698,-16.563753,-15.549529,-13.532345,-13.521512,-15.517028,-17.512693,-14.492979,-15.485843,-13.469528,-13.459562,-12.446616,-13.440009,-16.439751,-17.433432,-16.421062,-15.408851,-17.406116,-17.397331,-17.388713,-19.386481,-16.368889,-12.348345,-13.343468,-14.338719,-17.340328,-20.342105,-18.328529,-17.318239,-16.308117,-14.295042,-15.291433,-19.297301,-19.290917,-12.262951,-15.266200,-17.266486,-18.263829,-16.252019,-14.240365,-15.238178,-14.229919,-16.231125,-16.226269,-16.221570,-14.210807,-10.193962,-15.205202,-17.207260,-19.209483,-17.199454,-15.189590,-13.179872,-14.179611,-17.185705,-17.182636,-19.185952,-16.173905,-13.162014,-15.165798,-14.160399,-14.158246,-16.162449,-13.151259,-15.155745,-15.154157,-17.158935,-15.151440,-14.147200,-11.136878,-8.126662,-8.125854,-8.125125,-8.124473,-8.123900,-6.117186,-2.104312,-2.103897,-3.106611,-8.121794,-7.118398,-0.096412,8.931792,12.944534,16.957401,19.967322,21.974325,21.975321,21.976529,17.965510,17.967103,14.959540,12.955231,11.954157,12.959417,11.958583,8.951644,4.941683,3.941098,2.940551,2.943142,0.939542,-4.073378,-9.086337,-11.090055,-12.090770,-10.082273,-13.089421,-13.087366,-17.097877,-20.105442,-18.097653,-15.086928,-17.091898,-17.090812,-19.096111,-20.098485,-19.094832,-16.085145,-18.091161,-20.097351,-21.100625,-18.091664,-19.095316,-17.089824,-15.084496,-17.091752,-19.099172,-24.116106,-25.120834,-27.128913,-31.143474,-28.136567,-16.101944,12.985387,58.122597,103.260368,153.414683,211.595353,263.759406,287.838931,275.809284,225.664129,163.483834,102.308224,52.167807,21.086976,11.071651,6.071980,-3.943180,-8.942830,-11.936347,-11.920650,-11.905068,-12.892710,-18.896025,-23.896412,-26.890811,-29.885468,-29.871085,-29.856990,-33.855621,-34.845250,-33.828995,-35.822395,-32.800592,-30.782216,-30.770355,-31.761900,-34.759971,-37.758377,-34.738490,-30.715827,-30.705899,-29.693157,-30.686921,-33.687200,-32.675366,-29.657627,-30.652612,-30.644783,-31.640359,-29.626912,-29.619969,-29.613312,-29.606940,-30.603963,-30.598172,-29.589566,-26.575026,-26.570071,-28.571592,-27.564059,-30.569230,-30.565367,-26.549360,-23.536719,-22.530524,-23.530765,-24.531233,-26.535047,-24.526679,-23.521656,-21.513751,-25.524711,-26.526588,-24.519392,-22.512432,-18.499470,-19.502235,-17.495858,-18.498979,-19.502279,-18.499547,-16.493884,-16.494599,-16.495473,-17.499616,-14.491489,-10.480392,-7.472506,-8.477130,-6.472507,-6.474166,-8.482106,-6.477690,-3.470226,-1.465906,-3.474038,-1.469765,-0.468616,4.544967,7.552375,8.553636,11.561199,11.559544,13.564220,17.575246,18.577113,18.576049,20.581383,21.583807,20.580219,22.586158,26.598534,28.604948,28.605417,28.606163,27.604075,31.617801,33.625613,33.627529,33.629770,30.623005,30.625865,32.635240,34.644929,34.648733,31.643542,31.647985,30.649623,28.648447,26.647547,21.637576,19.637141,18.640006,14.633722,13.636907,13.643334,10.640563,6.634785,4.635290,4.642059,4.648873,5.658842,4.662646,3.666494,0.664159,-0.331950,-0.324954,0.685150,-0.310959,-1.307072,-4.309416,-5.305582,-3.292471,-2.282501,-1.272553,-4.275056,-7.277600,-6.267776,-6.261121,-5.251418,-4.241765,-5.238372,-7.238139,-5.225538,-2.209877,1.808872,-1.194129,-2.190923,-2.184627,-2.178353,-1.168990,1.846581,0.849731,-0.147111,-3.150173,-5.150157,-0.128422,1.883983,0.887076,-0.109821,-1.106720,-1.100520,-0.091220,3.927407,1.927414,-0.072560,1.939904,0.943058,0.949330,1.958721,0.961912,0.968221,0.974540,0.980868,2.993425,6.009121,5.012436,3.012690,4.022301,1.019513,4.035392,6.048201,5.051739,4.055326,4.062061,4.068836,4.075650,6.088723,4.089415,4.096366,2.097138,0.097930,4.117380,6.130651,6.137762,3.135603,1.136584,1.143795,5.163456,5.170727,2.168720,2.176063,2.183427,2.190811,2.198217,6.218083,4.219350,2.220658,2.228208,2.235778,3.246480,5.260322,4.264887,3.269492,2.274129,1.278788,3.292788,7.313040,5.314704,4.319528,2.321285,2.329283,5.346633,5.354706,6.365939,3.364796,3.373014,3.381264,5.395766,6.407211,5.412498,4.417837,3.423219,4.434853,5.446530,5.455150,6.466932,3.466337,2.471996,3.483897,3.492723,6.510911,8.526052,4.522618,4.531665,2.534538,3.546763,6.565242,4.568236,5.580603,5.589914,4.596170,3.602469,6.621242,7.633860,6.640332,4.643758,2.647229,5.666273,9.688482,10.701456,10.711423,6.709055,8.725409,11.744957,12.758398,12.768854,13.782542,11.787033,13.804078,18.830584,24.860381,28.884198,28.895856,32.920230,37.948032,42.976199,43.992343,43.002690,35.994795,32.999685,31.008003,30.019730,31.037965,29.047170,26.053546,25.066392,24.079480,23.092800,26.118781,22.123247,18.127925,17.142108,12.144017,10.155372,7.163715,7.181457,4.189938,2.201570,-1.792997,-0.772032,-0.754185,-2.742564,-2.724750,-4.713182,-5.698550,-2.671534,-0.647653,-0.629998,-4.624787,-7.616512,-7.598981,-5.575304,-2.548571,-4.537411,-4.520075,-4.502783,-5.488644,-8.480777,-7.460553,-11.455950,-16.454566,-16.437793,-13.411850,9.676157,42.795354,84.942950,125.085146,173.253424,227.442031,265.583075,270.624062,234.540163,176.390112,123.257310,70.125696,30.035183,16.025811,10.041470,3.054116,-3.933208,-3.898803,-1.858216,-2.826976,-7.808201,-12.789502,-20.780255,-25.761880,-23.721985,-22.685429,-25.661530,-24.625440,-29.608245,-28.572677,-26.534276,-27.505459,-27.473798,-29.448620,-32.426837,-32.396036,-29.356220,-26.316686,-26.286735,-27.260147,-31.243150,-33.220236,-33.191423,-31.156710,-28.119188,-27.088156,-29.066714,-29.039333,-32.021561,-31.994769,-32.971395,-32.945229,-32.919381,-33.896959,-29.859317,-28.831291,-26.800433,-31.791601,-31.767527,-35.756199,-30.717228,-31.697211,-31.674390,-36.667422,-37.648369,-32.611022,-30.583318,-25.546579,-25.525636,-27.511157,-30.500053,-33.489244,-30.460099,-28.434358,-27.412000,-30.402345,-29.380545,-28.359028,-23.325345,-26.316765,-24.292890,-25.278579,-27.267620,-27.250705,-27.234053,-27.217664,-26.198427,-27.185662,-25.163830,-22.139131,-18.111536,-16.090334,-16.075508,-18.067055,-21.061886,-19.041372,-17.021042,-10.988437,-11.977705,-9.957760,-10.947240,-9.930606,-6.907849,-1.878939,-0.862485,1.157069,0.167306,-1.825565,1.197095,8.232204,11.254955,8.259156,7.269656,6.280226,9.303295,13.329564,12.340412,16.366928,15.378054,16.395547,17.413198,19.434127,19.449023,18.460998,16.470040,14.479242,13.491693,13.507383,11.516985,8.523588,8.539602,5.546369,6.565628,5.578732,0.579450,1.598832,-0.391099,-3.384144,-8.383441,-8.367271,-10.357400,-15.356958,-14.338007,-16.328522,-15.309866,-11.282029,-12.269848,-16.267115,-17.255210,-19.246580,-16.222588,-17.211191,-18.199960,-20.192014,-21.181153,-20.164277,-15.135157,-15.121730,-19.120889,-20.110902,-20.098000,-18.079072,-18.066538,-23.069726,-25.063808,-23.045692,-23.034018,-28.038115,-24.014494,-18.987996,-17.974119,-19.969745,-22.968673,-24.964712,-19.939225,-13.910820,-12.898097,-17.904157,-23.913499,-24.907523,-18.880020,-15.862028,-16.856627,-20.860717,-23.861900,-20.844654,-16.824499,-15.813836,-14.803325,-11.786738,-18.801360,-18.794397,-17.784504,-17.777893,-17.771454,-16.762076,-18.762188,-17.753153,-14.738069,-12.726237,-12.720747,-15.724709,-16.722602,-16.717548,-15.709545,-15.704803,-18.709541,-20.711350,-18.700920,-19.699999,-16.686830,-15.680041,-12.667184,-15.673106,-18.679180,-18.676105,-13.657661,-14.658008,-12.649166,-11.643556,-15.653607,-17.657589,-19.661741,-19.659864,-20.661286,-18.653578,-17.649160,-15.641802,-15.640814,-17.646196,-16.642419,-15.638803,-16.641557,-20.653800,-22.660023,-17.644697,-13.632651,-14.636284,-16.643168,-20.656432,-19.654346,-15.643122,-15.644486,-19.658440,-20.663255,-19.662049,-19.664143,-19.666426,-21.675118,-22.680909,-22.683810,-21.683819,-21.687147,-17.678246,-18.685063,-20.695170,-22.705476,-22.709782,-18.701868,-18.706574,-18.711459,-18.716525,-18.721772,-20.733418,-16.726606,-14.726174,-10.719666,-9.722589,-11.734936,-11.741176,-10.744419,-7.741547,-4.738750,-6.751546,-9.767517,-6.764925,0.250041,9.271229,15.283177,12.267285,4.235964,-3.795317,4.223120,5.219831,8.222811,3.200993,-2.823904,-6.842609,-4.842721,-2.842881,-6.861725,-7.871307,-12.893404,-16.912515,-17.922460,-16.926358,-18.939749,-20.953322,-21.963988,-24.981084,-21.979764,-20.984875,-19.990188,-19.998803,-22.013831,-21.019741,-18.019635,-19.032142,-28.069709,-37.107546,-37.117755,-34.118992,-27.108120,-20.097509,-17.099530,-22.126594,-29.160089,-34.187647,-36.206205,-31.203345,-32.219444,-32.232743,-35.255682,-34.266523,-19.234159,10.844665,56.973347,110.124346,168.291954,229.470514,278.613971,286.632618,243.495436,176.285970,114.093752,53.908853,14.789776,-3.263856,-8.277094,-20.312179,-24.322583,-28.333222,-28.331695,-28.330441,-28.329461,-35.350520,-40.365702,-45.381272,-42.372403,-38.360833,-38.362071,-39.366788,-40.371885,-44.386700,-42.383285,-40.380279,-41.386991,-39.384773,-40.392263,-41.400143,-41.405312,-39.404661,-37.404390,-41.423138,-39.423627,-43.443153,-41.444441,-42.455457,-40.457554,-42.472479,-41.478484,-41.488000,-43.504134,-41.508249,-39.512764,-40.526989,-39.535386,-40.550383,-38.556441,-38.569091,-40.588332,-38.595526,-39.612420,-42.635916,-40.644274,-37.649915,-35.659028,-33.668485,-35.690705,-41.725708,-41.742455,-40.756495,-40.774038,-38.785754,-38.804063,-38.822747,-33.826256,-31.839420,-32.862221,-32.882228,-34.908772,-33.926323,-31.941092,-27.949949,-27.971515,-31.002679,-33.031032,-33.053484,-26.054487,-23.068181,-21.085206,-24.117982,-22.135443,-22.159337,-18.171005,-17.192178,-16.213517,-15.235011,-17.265982,-17.290900,-15.309765,-15.334997,-12.351047,-7.360998,-4.377239,0.612697,3.596420,5.577068,2.542221,3.519838,2.491269,2.465834,5.449751,9.436831,10.414673,12.395724,11.367567,8.333299,10.314660,15.305450,12.271510,11.243907,10.216413,9.189018,8.161711,6.131373,7.110423,7.086431,1.043851,-0.986281,-3.016423,-3.040374,-3.064354,-6.097694,-10.134201,-11.161477,-10.182642,-11.210124,-12.237714,-16.274751,-18.305725,-23.346205,-18.355814,-18.381148,-14.394220,-20.438528,-21.467484,-22.496647,-22.522918,-22.549405,-22.576111,-20.596814,-19.620825,-21.654355,-19.675655,-18.700254,-20.734362,-22.768671,-21.793869,-22.825497,-18.841797,-15.861389,-14.887352,-18.929007,-17.955297,-19.991088,-21.023963,-17.041491,-16.068514,-16.098800,-21.144790,-23.181655,-18.196976,-15.218692,-14.246774,-18.290541,-20.328265,-17.350637,-14.373176,-10.392745,-10.424852,-12.463278,-15.504935,-15.537412,-13.563819,-13.596577,-15.635685,-13.662505,-13.695676,-13.728979,-10.753085,-10.786625,-12.826487,-15.869583,-15.903502,-14.934466,-12.962463,-10.990586,-13.031253,-16.075156,-18.116103,-19.154116,-9.158107,-8.190174,-5.216100,-3.245186,-1.274303,-2.312762,-9.369900,-13.417800,-21.478268,-23.520285,-24.559419,-24.595681,-19.616631,-9.622222,-2.637235,7.357056,5.314102,-5.756788,-16.827733,-18.870853,-18.907937,-15.935873,-9.954634,-5.979711,-5.014174,-2.042466,-7.095655,-10.142693,-17.202267,-16.237130,-14.269040,-13.304197,-11.336373,-11.374877,-9.407272,-10.449086,-9.484782,-8.520569,-7.556439,-5.589271,-4.625267,-3.661308,-3.700493,-2.736605,-6.788291,-7.830714,-8.873212,-9.915796,-6.946036,-3.976344,-6.022238,-7.065081,-9.111101,-9.150990,-6.181639,-1.206127,0.760044,-0.283107,-2.329370,-3.372546,-4.415754,1.562762,4.531965,2.485663,0.439385,2.405550,8.384177,15.365994,20.341740,28.327011,31.297007,29.251756,30.216117,26.165220,25.123904,22.076612,20.032642,18.991974,16.948380,15.908059,15.871002,14.830987,15.797335,15.760725,17.730487,14.684871,11.639397,10.600254,10.564323,8.522275,9.489637,4.438434,-3.622056,-7.670142,-5.699644,-7.741640,-8.780601,-5.807207,-9.855638,-7.885505,-11.934106,-10.967274,-10.000548,-7.027699,-9.070466,-10.110211,-12.153163,-10.183793,-8.214522,-4.239110,-8.288616,-12.338203,-19.397237,-23.447129,-25.491028,-11.485419,20.576053,66.681259,128.836862,204.034132,284.248917,338.385591,340.363826,291.186751,214.928522,142.684804,88.498435,61.396879,51.348779,44.310503,30.250886,24.216438,19.185334,17.163743,10.126769,3.089893,-6.956282,-10.983866,-12.002227,-15.026923,-12.033107,-15.058064,-17.080056,-21.108433,-19.118355,-18.131571,-17.144962,-16.158518,-20.187778,-22.211014,-19.218915,-19.236331,-21.260151,-23.284176,-21.295988,-22.317333,-20.329564,-18.341992,-17.357706,-19.382916,-19.402094,-21.427678,-18.437921,-16.451450,-14.465139,-17.494515,-19.520950,-20.544464,-18.558846,-14.567189,-14.588110,-15.612282,-19.645933,-20.670444,-16.679607,-15.698259,-18.729502,-20.757815,-20.780109,-19.799493,-19.822178,-14.829506,-15.855635,-14.875697,-15.902122,-14.922481,-15.949204,-14.969860,-13.990661,-14.014707,-16.045106,-14.063222,-12.081474,-9.096732,-12.130736,-11.152418,-9.171099,-8.192977,-3.202495,-1.221374,-0.243373,-1.271595,-2.299829,-1.321865,6.677853,10.665197,11.643315,10.615326,9.587439,10.565864,16.559939,21.551064,24.536177,24.512198,24.488455,25.468058,31.463455,35.452936,39.442758,37.414303,37.392428,40.380242,40.359117,41.341490,44.330481,44.310570,46.297306,46.278269,44.253459,49.250843,44.217605,44.200342,44.183504,42.160874,40.138650,37.113703,36.095333,33.071092,29.044060,24.014198,22.997006,21.980036,19.960169,15.934274,12.911643,9.889136,7.869834,8.859937,7.843906,5.824841,2.802723,-3.228698,-1.235272,-0.244968,1.748443,3.741872,-0.283322,-2.302299,-2.315079,0.681448,-0.334457,-4.359695,-7.381865,-9.400996,-6.404670,-4.411515,-5.427732,-3.434672,-3.447864,-4.464199,-4.477468,-2.484561,-3.501006,-4.517485,-5.534008,-5.547474,-4.557885,-1.562120,-3.581918,-2.592422,-1.602950,-3.622824,-0.627183,-1.643988,-0.654589,2.341023,0.321109,-1.698801,-3.718728,-0.723143,-0.736894,0.252458,2.244923,-0.778140,0.211229,2.203709,4.196210,4.182533,4.168896,1.145970,-0.873835,1.118790,2.108316,5.104082,-0.928089,-0.941612,2.054185,6.053111,6.039657,3.016933,0.997347,-1.022229,0.970624,5.972814,4.956405,3.940043,0.917500,-1.101924,0.891080,4.890311,3.874041,0.851590,-0.164635,-1.180860,0.812232,1.802222,2.792229,3.782263,1.763005,1.749983,5.749417,4.733357,4.720453,0.695156,-0.320805,0.669450,2.662821,3.653108,4.643430,3.627577,2.611760,0.592858,2.586400,1.570639,2.561112,2.548499,1.532802,0.517120,0.504552,1.495099,2.485660,1.470026,2.460625,-1.564300,0.429417,2.423139,3.413774,3.401333,-0.623514,0.367181,0.354770,1.345472,4.342406,3.326944,-0.697816,0.292967,1.283752,6.286988,8.280955,8.268783,6.250472,3.229111,7.229549,10.226947,11.218224,9.200281,6.179316,6.167740,10.168662,14.169682,22.183277,30.197086,33.195638,33.185181,29.162605,30.155859,30.146294,30.137019,28.121816,23.097554,18.073516,19.068309,19.060177,17.046009,15.032005,14.021256,16.019971,18.018841,13.999226,9.979746,1.947924,-0.065221,0.930962,-1.082175,-1.089104,-6.111591,-7.121698,-7.128764,-8.139009,-7.143113,-6.147286,-4.148408,-3.152680,-8.175640,-8.183131,-3.175153,-3.182753,-7.202822,-9.216742,-10.227641,-10.235529,-7.234187,-7.242243,-6.247259,-9.264775,-11.279270,-11.287654,-13.302366,-7.292330,18.779829,62.908143,124.089926,199.316441,275.547987,325.701339,321.689910,269.532319,198.318243,132.121627,80.972930,55.905863,48.895309,40.882117,30.863100,22.850599,18.850757,17.860426,12.857829,5.849136,2.852938,1.862987,-0.130056,-1.119991,-4.116155,-3.099921,-1.080607,-2.070632,-12.088664,-25.116141,-34.131422,-39.134593,-39.122594,-35.098533,-31.074810,-30.060716,-30.050021,-31.042726,-30.029511,-29.016585,-24.994610,-23.982204,-23.973140,-23.964306,-23.955704,-22.944223,-22.936073,-20.921924,-22.920416,-26.925348,-26.918101,-21.895566,-19.882570,-21.882204,-21.875831,-23.875887,-22.866845,-21.858023,-22.855631,-22.850349,-23.848398,-23.843567,-26.848295,-26.843952,-25.836759,-27.839143,-26.832468,-25.826050,-25.822992,-23.813963,-20.802054,-19.796564,-23.806814,-26.814184,-28.818702,-22.798622,-20.791199,-21.793306,-22.795623,-23.798160,-26.807145,-21.791512,-19.785417,-17.779514,-17.780001,-20.789988,-18.784628,-13.770120,-12.768183,-11.766369,-11.767778,-11.769301,-5.752279,-3.747751,-2.746369,-4.754343,-5.759252,-3.754889,-3.756780,4.266169,10.282940,13.290481,18.304370,18.302887,15.292251,22.312859,27.327463,26.323673,24.317027,21.307505,18.298189,20.304598,25.320531,28.330489,25.322062,25.323208,24.321489,26.329333,27.334321,28.339573,25.332659,22.325990,21.325755,22.331945,16.316583,9.298268,0.273824,-7.747508,-6.740928,-3.728193,-2.721714,-6.730809,-8.733750,-9.733665,-9.730565,-11.733778,-12.733994,-12.731223,-12.728575,-10.719830,-13.726737,-13.724448,-12.719181,-12.717146,-14.721453,-16.725902,-16.724293,-13.713516,-15.718420,-17.723475,-20.731811,-19.727908,-20.730414,-20.730011,-16.717369,-14.711107,-16.717426,-18.723906,-22.736786,-18.725007,-14.713410,-12.708173,-13.712388,-18.729173,-17.727481,-18.732180,-15.724620,-14.723432,-13.722385,-17.737018,-20.748713,-16.738841,-13.732240,-11.728880,-11.731853,-13.741158,-14.747487,-16.757066,-12.748150,-11.748686,-11.752444,-10.753206,-10.757181,-8.755041,-8.759204,-7.760342,-7.764665,-10.778391,-13.792222,-11.790637,-10.792275,-9.794018,-6.789635,-7.797757,-6.799734,-6.804887,-7.813214,-7.818508,-12.839425,-9.835589,-6.831847,-6.837501,-4.837001,-7.852096,-10.867266,-14.885651,-14.891741,-8.879316,-4.873197,-4.879563,-7.895305,-12.917342,-13.927065,-14.936923,-10.931376,-12.944593,-13.954824,-18.977629,-16.978849,-11.970904,-8.969294,-4.964660,-2.966294,-1.971066,-0.975857,9.047330,18.067494,14.047407,2.002578,-12.048451,-21.084047,-28.113628,-31.131041,-28.130097,-24.126313,-20.122763,-17.122516,-12.116215,-6.106921,0.905424,-0.107100,-9.144502,-20.188211,-22.204128,-16.195382,-13.196121,-14.209426,-15.222868,-16.236456,-10.228434,-8.232949,-8.243762,-6.248436,-6.259389,-6.270402,-4.275257,-4.286372,-5.300638,-8.321175,-8.332462,-3.328282,0.672756,9.689349,18.706036,24.713574,20.690254,16.667133,16.656611,16.646250,16.636050,15.622900,12.603681,9.584584,9.574909,9.565325,10.558944,9.546445,6.527818,2.506145,0.490716,-1.524709,-2.537039,-9.568051,-14.592936,-15.605523,-13.608932,-11.612472,-10.619234,-10.629207,-12.645502,-16.668139,-14.672278,-12.676559,-12.687181,-13.701035,-15.718131,-18.738488,-18.749697,-13.745538,-11.750841,-12.765586,-16.789783,-16.801703,-16.813785,-17.829139,-19.847774,-22.869711,-29.904306,-28.914313,-13.881063,24.223575,75.368871,129.524223,190.702591,254.892126,302.031255,304.033361,258.892245,193.691432,126.486267,68.310307,38.222077,34.215065,26.195945,15.167748,11.161465,5.149070,0.139835,-6.875619,-12.888029,-17.897453,-20.900831,-21.898191,-21.892653,-22.890435,-25.894657,-30.905348,-36.919447,-37.918353,-33.902077,-30.889237,-29.882914,-27.873770,-27.871113,-29.874945,-28.869735,-28.867914,-32.878809,-33.880693,-35.886012,-35.885459,-34.882141,-30.869831,-30.870257,-30.870981,-30.872002,-30.873321,-27.865609,-26.864384,-29.875857,-31.884508,-33.893467,-35.902753,-33.899946,-31.897465,-32.904622,-31.905876,-35.922985,-35.928003,-34.930257,-30.923519,-27.920189,-28.929567,-28.936114,-31.952268,-30.956292,-28.957505,-23.949668,-26.966939,-28.981361,-29.992952,-27.995503,-25.998325,-25.004506,-24.010929,-26.026912,-26.036926,-25.044082,-23.048370,-22.055989,-22.066931,-22.078085,-22.089453,-20.094814,-17.097259,-15.102978,-13.108843,-15.127273,-15.139630,-12.142803,-7.139875,-4.143234,-5.159072,-5.171850,-6.187788,-3.191346,-0.194936,0.795254,1.785451,1.772555,0.756568,3.753026,7.752629,10.749198,14.748980,15.739576,15.727213,20.730551,23.727868,23.716086,19.692094,18.677620,19.669546,27.683429,32.688250,34.684057,36.680198,36.670474,36.661103,37.655196,33.634103,29.613334,26.595960,22.575733,21.565053,21.557690,23.556755,25.556046,24.546255,17.518042,9.486889,6.471376,4.459034,4.452955,2.440699,1.431577,-1.583751,-0.586655,-1.595785,-1.601820,-4.617200,-5.626405,-7.638774,-2.629448,-1.632587,-5.651290,-5.657609,-4.660872,-7.676619,-5.676892,-3.677220,-5.690021,-7.702878,-9.715808,-8.719504,-7.723283,-4.720918,-3.724817,-3.731862,-7.751382,-8.761647,-6.762668,-5.766864,-2.764896,-7.787832,-7.795294,-7.802832,-4.801116,-0.796337,0.199106,-1.814779,-1.822461,-6.845710,-1.837928,-0.842602,1.155826,-1.861284,-2.872193,-0.873800,-0.881635,2.119851,5.121357,3.107364,-1.915928,-2.926800,-4.940809,-4.948647,-1.947204,-3.961327,-2.966160,0.035197,2.033446,5.034823,-0.991737,1.006570,-4.016881,-0.012384,2.989004,3.984201,2.973217,3.968481,1.954455,-4.071992,-2.073600,-0.075228,-1.086186,1.915284,-0.098776,-1.109727,1.891750,4.893245,3.882349,-1.140949,-3.154928,-4.165828,-3.170550,1.837137,0.826184,-0.184761,-1.195708,-2.206667,-1.211428,-0.216200,1.782135,3.780488,1.766438,0.755515,1.750819,3.749249,0.732167,-1.281799,-1.289557,-2.300437,-1.305121,0.693293,1.688604,0.677711,-0.333174,-0.340953,2.660593,2.652836,3.648214,-1.375030,-6.398288,-8.412278,-5.410801,-4.415596,-2.417324,-3.428404,-3.436407,-3.444443,-2.449403,1.554942,1.546864,-0.467419,-1.478596,-4.496007,-0.491694,-0.499824,2.501370,3.496369,2.485182,0.470909,1.465970,3.464155,4.459264,3.448196,1.434052,2.429250,7.436911,8.432204,5.415141,4.404349,4.396709,7.398440,15.415791,22.430180,28.441677,33.450338,36.453102,34.440669,34.434787,31.419909,33.420882,30.406628,30.401997,24.379001,24.374898,21.361700,20.354928,16.339024,18.341934,15.329474,16.329599,15.323663,12.311655,9.299766,3.278638,-0.736240,-2.744905,-3.750487,-3.752996,-6.764870,-7.770590,-9.779494,-5.769835,-4.769560,-5.775550,-6.781597,-6.784598,-10.800104,-5.787728,-4.787845,-4.791118,-7.803767,-7.807162,-9.816851,-7.814196,-2.802288,-2.805955,-5.818978,-9.835167,-9.839012,-10.846061,-13.859435,-18.879161,-19.886630,-16.881853,-2.843033,31.257953,71.377898,115.510970,166.666923,223.843140,269.987309,287.043901,260.969546,204.804417,142.622605,90.473264,49.359001,28.307406,26.315168,23.320074,20.325204,15.324312,8.317347,1.310463,-0.680860,-5.681519,-11.685342,-16.686169,-21.687156,-29.697681,-28.680505,-28.666716,-26.646984,-26.633728,-31.636277,-30.620473,-29.604964,-27.586631,-28.577892,-30.572539,-30.561262,-28.544059,-28.533351,-29.526028,-30.518990,-33.518465,-33.508934,-31.493507,-29.478383,-27.463544,-26.452079,-26.443978,-28.442352,-30.441000,-25.418174,-25.411141,-28.413682,-29.410278,-30.407157,-29.398110,-28.389347,-25.374638,-26.372612,-26.367730,-28.369322,-26.358749,-24.348430,-23.341456,-24.340926,-24.337520,-27.343679,-24.331443,-20.316331,-18.307635,-19.308445,-23.318769,-25.323099,-25.321454,-24.316944,-23.312667,-22.308616,-24.314108,-26.319835,-24.313377,-24.313373,-21.304274,-21.304709,-23.311569,-22.309325,-20.304186,-18.299243,-17.297586,-17.299205,-18.304101,-17.302954,-16.301974,-15.301151,-13.297366,-12.296818,-12.299499,-13.305408,-12.305226,-9.298943,-5.289641,-3.286608,-2.286717,-2.289958,1.719218,4.725301,6.728320,4.718965,5.718984,4.712839,3.706740,8.719334,12.728903,10.719937,14.729731,14.727230,16.731089,19.738219,22.745540,22.743751,21.739072,22.740821,23.742790,27.754316,29.759891,28.756424,27.753233,25.747201,27.753856,23.742120,23.743052,22.741103,15.720715,9.703588,7.698994,7.700693,9.708686,8.707443,7.706284,2.692761,5.704141,2.696918,-0.310279,-3.317478,-5.321601,-8.328884,-6.320699,-8.325014,-7.320080,-3.305887,-5.310385,-7.314933,-7.313333,-7.311803,-8.313454,-6.305855,-10.316976,-15.331305,-12.320905,-13.323062,-13.322239,-12.318434,-13.320967,-14.323628,-13.320208,-7.301369,-3.288819,-6.298068,-7.301159,-10.310539,-10.310690,-9.307830,-6.298841,-8.305461,-11.315271,-11.315861,-8.307231,-4.295571,-5.299501,-7.306592,-9.313753,-11.321004,-9.315925,-6.307827,-7.312228,-9.319809,-11.327480,-12.332151,-9.324502,-9.326271,-5.315693,-6.320713,-5.319575,-7.327818,-4.320582,-4.322718,-3.321785,-3.323994,-4.329345,-8.344066,-7.343320,-5.339535,-1.329582,-1.332080,-2.337701,-4.346454,-1.339700,-0.339179,-0.341771,-5.359914,-5.362561,-4.362150,1.653767,1.651043,1.648334,-3.369907,-4.375742,-7.387838,-9.396896,-9.399825,-5.390407,-6.396588,-5.396612,-6.402907,-1.390606,0.612353,0.609098,-0.397261,-3.409842,-4.416237,-4.419565,-1.413607,-3.423211,-4.429738,-6.439417,-6.442939,-7.449633,-6.450180,-7.457007,-5.454578,-4.455311,-4.459197,-8.475564,-5.470246,-8.483638,-5.478454,-8.491980,-7.493150,-6.494392,-3.489478,-5.500145,-5.504646,-5.509200,-9.526246,-7.524725,-7.529497,-6.531231,-4.529919,-5.537980,-6.546093,-6.551161,-4.550072,-2.549027,-1.551116,-6.571878,-9.586484,-3.573196,2.440058,3.437787,3.432440,1.420906,-3.599943,-3.605278,2.408010,2.402663,2.397340,0.385820,-0.622587,3.384549,14.413485,17.417683,20.422048,26.435940,30.443866,28.433429,22.410827,18.394661,14.378671,11.365930,8.353299,9.353186,9.350055,11.353232,11.350300,9.341258,6.329196,6.326524,3.314585,1.305786,0.300111,-2.711782,-5.723700,-10.741893,-10.744641,-10.747493,-8.744229,-10.753488,-14.769070,-12.766137,-9.760217,-6.754391,-11.773507,-14.786517,-16.796560,-17.803656,-19.814033,-16.809053,-13.804234,-14.811988,-17.826103,-19.837281,-14.826882,-8.813517,-8.818894,-11.833686,-19.864139,-22.879236,-25.894554,-25.900792,-26.910389,-19.895369,1.162994,41.280452,88.420075,142.582318,206.777032,263.951972,291.036167,274.989453,227.848991,171.682738,117.524360,63.367115,28.269564,18.250027,13.246213,4.230089,-3.782885,-8.786567,-9.777894,-13.778645,-18.782638,-26.796141,-31.800574,-32.792875,-34.788601,-31.769114,-29.753044,-32.752808,-32.743559,-35.743955,-37.741586,-37.733361,-37.725500,-38.721113,-36.707769,-34.694780,-35.691454,-34.682252,-30.664056,-28.652375,-28.647190,-30.648500,-32.650105,-35.655135,-38.660508,-39.660035,-39.656835,-37.647797,-38.648451,-37.643259,-35.635320,-30.618395,-32.623534,-33.625877,-33.625434,-35.631535,-32.622431,-32.622971,-35.633154,-39.646790,-39.648370,-37.644112,-36.643328,-35.642896,-35.645918,-36.652393,-36.656111,-33.650854,-32.652141,-30.650633,-30.655640,-34.673380,-37.688345,-31.675687,-31.681992,-26.673055,-26.679922,-26.687047,-28.700648,-29.711417,-26.710033,-24.712016,-24.720457,-23.726026,-23.734934,-21.737852,-19.740978,-17.744296,-15.747784,-18.766972,-19.780122,-15.777914,-12.778969,-11.786365,-9.790766,-9.801480,-8.809179,-4.807634,-3.815464,0.185997,2.181242,2.170288,1.156245,4.154652,6.149990,10.151606,17.162649,13.139651,11.122999,11.112674,12.105565,17.111012,19.107295,20.100652,17.081764,18.075480,20.072480,22.069673,21.057750,21.049139,20.037622,19.026298,22.027596,20.013558,16.996603,11.973593,7.953808,6.943429,7.939336,9.938429,7.925179,1.899567,-1.116698,-3.129863,-2.133730,-4.146947,-4.153984,-6.167281,-10.186856,-10.194091,-11.204534,-8.202646,-10.216386,-14.236443,-16.250419,-16.258331,-14.260181,-11.259059,-14.276704,-13.282047,-15.296847,-15.305576,-13.308233,-16.326566,-17.338837,-17.348166,-17.357662,-16.364216,-13.364708,-12.371549,-14.387837,-18.410484,-20.427089,-21.440781,-16.436022,-12.434531,-11.442488,-13.459885,-15.477412,-13.482649,-12.491126,-9.493504,-11.511522,-12.526541,-16.551010,-13.553871,-9.553753,-6.556837,-8.575532,-9.591200,-12.613179,-10.619733,-9.629498,-7.636246,-6.646178,-10.671722,-9.681821,-10.698232,-7.702308,-7.715786,-6.726230,-7.742958,-7.756651,-8.773528,-8.787380,-8.801317,-7.812229,-8.829436,-10.849837,-8.857905,-7.869167,-5.877396,-6.895010,-7.912691,-11.939777,-7.942101,-7.956940,-4.962527,-5.980600,-6.998731,-12.029368,-13.047682,-8.047464,-10.069091,-7.075267,-7.090841,-10.115811,-10.131550,-10.147387,-11.166432,-11.182474,-8.189295,-10.211743,-9.224961,-8.238268,-7.251654,-9.274439,-8.287985,-12.317158,-10.327793,-10.344746,-8.355580,-10.378933,-13.405495,-11.416639,-12.437221,-9.445485,-8.460059,-7.474715,-6.489443,-10.519781,-9.534673,-8.549657,-8.567833,-9.589201,-10.610661,-13.638443,-12.653918,-9.663296,-8.678986,-11.707198,-10.723085,-13.751513,-11.764526,-9.777652,-6.787763,-7.810378,-8.833068,-11.862063,-12.884952,-8.892418,-8.912408,-8.932484,-6.946427,-6.966656,-4.980732,-5.001077,-7.027688,-8.051258,-10.078015,-9.095540,-7.110043,-2.115286,0.873231,-2.156901,-2.177724,-5.207898,-3.222574,2.775158,7.769807,11.761421,16.756258,20.748147,26.746455,27.729473,26.706539,20.668314,21.652056,19.626678,17.601489,15.576470,14.554710,13.533091,9.502273,9.483986,10.468899,11.453914,9.429709,7.405596,2.372226,-1.658013,-1.675828,-4.702989,-4.720866,-6.745008,-8.769215,-10.793506,-11.814792,-8.823754,-6.835909,-5.851241,-8.879067,-12.910089,-13.931906,-11.944529,-8.954157,-9.976310,-13.004778,-14.027153,-15.049662,-14.066098,-11.076450,-13.102456,-17.134809,-19.161107,-21.187590,-23.214277,-24.238079,-25.262114,-18.261515,4.788662,45.894858,92.017045,150.177435,216.364150,273.524963,292.570247,261.462870,201.267833,144.084065,89.911015,50.785477,34.731950,31.719183,26.700502,20.678970,15.660746,8.636454,4.621574,-0.396371,-7.420539,-11.435450,-19.462910,-22.475009,-25.487324,-24.487447,-23.487806,-21.485281,-23.495402,-25.505750,-28.519453,-27.520993,-26.522798,-25.524859,-26.533384,-30.551495,-30.557462,-28.557504,-27.560930,-27.567732,-27.574800,-27.582134,-26.586624,-24.588261,-23.593244,-26.610893,-27.622580,-26.628313,-29.646742,-26.646798,-30.668880,-23.657050,-24.670326,-23.677620,-26.697582,-23.699142,-24.713370,-25.727836,-28.748769,-29.763760,-29.775929,-29.788384,-25.788688,-24.798570,-22.805581,-22.819031,-25.842030,-24.852839,-21.857669,-20.868929,-19.880390,-24.910700,-26.931922,-25.944074,-22.950257,-19.956662,-19.972588,-19.988706,-21.008126,-18.015311,-16.025779,-16.042620,-15.056507,-16.076758,-17.097164,-14.105296,-11.113565,-8.121940,-6.133503,-6.151345,-9.178575,-3.177907,-0.186598,3.807819,5.796053,3.771904,2.750901,4.739254,11.743201,14.734822,16.723476,19.715400,21.704405,20.684291,23.676814,24.663346,23.643897,25.634004,21.605701,21.590045,27.593254,29.584291,31.575614,31.561021,29.540513,29.526510,32.522120,31.505604,26.476954,23.454779,17.423501,18.414158,17.398773,18.389775,14.365407,9.338067,8.323256,6.305415,5.290745,4.276126,0.252219,-3.771685,-5.789407,-7.807184,-3.806378,-4.821158,-7.842203,-9.860215,-13.884540,-14.899671,-11.902507,-9.908567,-12.930270,-12.942770,-15.964723,-15.977501,-12.981104,-9.984833,-9.997986,-14.023675,-17.046389,-16.056828,-15.067423,-15.081272,-11.082829,-13.103150,-15.123597,-16.141080,-13.146281,-8.145389,-8.160123,-12.187375,-15.211635,-12.217383,-9.223250,-9.238534,-10.257016,-11.275598,-12.294288,-11.306878,-9.316467,-8.329255,-6.339015,-7.358164,-9.380493,-5.384255,-4.397399,-4.413694,-7.439360,-11.468208,-13.490947,-11.501378,-7.505700,-5.516314,-2.523872,-4.547002,-8.576395,-7.590322,-4.598104,-2.609039,-2.626219,-5.652753,-8.679342,-7.693575,-4.701664,-3.716017,-3.733516,-4.754160,-6.777960,-3.786277,-2.800849,-1.815449,-3.839395,-6.866488,-7.887427,-7.905333,-5.917096,-2.925807,-4.950094,-6.974428,-8.998830,-6.007770,-4.019878,-4.038244,-4.056648,-6.081312,-6.099814,-8.124595,-6.137015,-4.149495,-5.171343,-5.190132,-9.221409,-7.234117,-7.253114,-5.265962,-4.281971,-7.310459,-10.339018,-4.339689,-2.352841,-1.369125,-1.388532,-4.417282,-8.449184,-6.462509,-5.479006,-2.489337,-4.515240,-8.547405,-9.570325,-6.580897,-6.600863,-4.614672,-4.634746,-5.657973,-6.681256,-6.701493,-5.718685,-7.745261,-3.753253,-6.783050,-6.803583,-6.824182,-5.841736,-4.859347,-3.877005,-6.907139,-7.931120,-5.945849,-5.966854,-1.975478,-0.993450,-4.023870,-6.051220,-4.066189,-1.078088,-0.096216,-0.117455,-0.138695,0.843173,0.821939,4.813153,9.807522,13.798876,15.784144,19.775783,25.773832,31.772130,31.752076,28.722999,25.694199,20.659428,18.634184,16.609121,17.593546,17.575031,17.556686,16.535400,17.520493,16.499535,11.466298,8.439391,3.406346,-0.623556,-2.647246,-7.680289,-4.688530,-3.703035,-3.720686,-4.741482,-2.752995,-1.767644,-3.791638,-3.809451,-8.842848,-10.867001,-8.878821,-6.890726,-5.905807,-4.920946,-6.945460,-7.966932,-9.991590,-9.007016,-6.016310,-6.034990,-10.066167,-16.103660,-19.131979,-22.160483,-15.158105,-3.140324,22.920962,55.001126,106.140904,169.319020,239.520537,287.655950,292.660421,248.515342,183.307355,124.119794,82.989402,59.915785,52.892498,49.882161,43.862975,38.847322,34.835153,27.813991,19.789987,6.750626,-0.270013,-6.287544,-7.289587,-8.291701,-11.300114,-15.311746,-15.311087,-17.316794,-14.307121,-15.310023,-17.316183,-20.325620,-19.322814,-18.320194,-20.327080,-19.324833,-19.325882,-22.336446,-21.334786,-22.339552,-20.335204,-21.340381,-24.351983,-23.351381,-24.357224,-20.347753,-20.350917,-19.351167,-21.360933,-24.374015,-21.368673,-21.372867,-17.364828,-17.369395,-19.380349,-21.391489,-20.393507,-21.401940,-16.391923,-15.394501,-14.397228,-20.421862,-21.431144,-19.431303,-17.431650,-17.438385,-18.448397,-18.455477,-17.459626,-17.467052,-14.465318,-14.473052,-14.480926,-14.488940,-14.497093,-10.492947,-9.498231,-12.516046,-13.527762,-14.539608,-9.532937,-5.529467,-2.529160,-3.541316,-5.556616,-9.578188,-8.584305,-3.578066,-1.581190,-1.590549,1.409405,-0.606174,3.396898,5.393783,11.403159,11.393987,10.381816,8.366635,6.351534,10.355153,14.358871,13.347180,17.351165,18.345989,21.347209,24.348634,28.353405,31.355338,31.348245,30.338345,30.331847,33.334970,36.338414,38.339099,35.324606,31.307343,34.312150,37.317287,34.304126,33.297516,30.285007,27.272790,25.263945,25.261563,23.253206,22.248182,17.230934,14.220072,15.221785,13.214316,13.213194,9.199760,6.189525,3.179350,1.172314,2.174619,0.167617,4.179273,2.172312,1.168482,-0.838447,2.170164,1.166358,1.165672,-0.841221,-4.854342,-3.851962,-1.846509,-0.844183,-3.854304,-6.864462,-8.871577,-6.866339,-3.858057,-2.856032,-1.854035,-1.855164,-1.856312,0.148742,0.147577,-0.856695,-4.870305,-6.877742,-8.885245,-6.880396,-4.875613,-3.873987,-3.875507,-3.877065,-4.881770,-2.877193,-1.875754,0.128777,-1.879129,-1.880834,-0.879447,-0.881179,1.123300,3.127790,4.129200,1.118212,-3.898985,-0.891342,1.113182,2.114608,3.116054,2.111311,1.106588,0.101875,3.109603,5.114250,4.109618,4.108136,0.094254,0.092812,-1.914849,0.089911,-1.917768,-0.916135,-2.923841,1.087083,0.082470,0.080966,0.079464,1.081072,0.076471,3.084310,5.089068,3.081437,1.073836,-0.933755,-2.941355,-0.936544,2.071367,3.073078,5.077929,1.064171,0.059752,-2.950885,-0.946003,0.055760,-0.948695,0.053060,-1.954514,-1.955887,0.048941,-0.955561,-0.956961,0.044738,-1.962890,-1.964319,-1.965766,0.038987,1.040630,0.036065,0.034609,0.033154,1.034809,3.039583,5.044387,0.027472,1.029215,-1.981471,-0.979737,2.028206,1.023731,1.022375,-0.985191,-2.992766,0.015179,0.013795,5.027959,3.020404,-0.993341,-0.994658,1.010236,3.015139,3.013852,1.006375,-2.004202,-1.002360,-0.000527,2.004415,5.012486,3.005057,4.006986,4.005844,6.010960,11.025463,12.027634,10.020591,10.019865,9.016125,9.015582,13.027565,13.027234,17.039468,20.048756,28.073786,36.099086,40.112296,36.101015,32.090082,29.082569,30.087774,31.093269,30.092845,26.083382,23.077280,23.080729,21.078181,21.082057,23.092354,20.087326,16.079382,13.074703,11.073259,7.065703,3.058214,2.060085,2.065084,-0.939225,-1.937324,-2.935442,0.078851,0.083815,-0.914329,-4.921811,-1.907573,-1.902683,-0.894701,-0.889838,-5.900531,-7.901952,-2.881682,-5.886316,-1.869240,-2.867731,-3.866249,-4.864804,-6.866515,-9.871403,-12.876386,-16.884602,-17.883652,-14.870436,3.189281,39.305002,85.452199,141.631316,207.842894,266.031599,280.086044,248.000146,189.835788,127.660822,78.527511,58.485137,59.508629,55.517147,48.516871,36.501514,25.489619,14.477969,3.466460,-2.529469,-5.516092,-6.496550,-12.492618,-17.485698,-21.475836,-20.450633,-20.428736,-20.407037,-20.385534,-23.373557,-22.349367,-23.331611,-19.298532,-20.281187,-21.264038,-22.247094,-26.239693,-24.213887,-22.188315,-22.169176,-23.153360,-27.147096,-27.128656,-20.088709,-20.070724,-22.059151,-23.044681,-27.039763,-25.016447,-21.990263,-19.967400,-22.960278,-23.947158,-22.928050,-22.912272,-21.893606,-17.865822,-20.859977,-23.854334,-22.836481,-22.821959,-18.795218,-16.774878,-18.767138,-20.759579,-24.758439,-22.738880,-18.713321,-13.684832,-14.675134,-17.671796,-19.665519,-18.650102,-14.625537,-13.610441,-9.586148,-11.580604,-12.572063,-12.560534,-9.539796,-8.525370,-8.514136,-7.499874,-9.495013,-7.477805,-7.466889,-3.443606,-0.423466,3.599780,3.610622,5.627718,7.644868,10.665201,7.666980,9.684380,8.692545,11.713233,14.734033,16.751866,19.772969,20.788045,19.797101,20.812567,23.834453,29.865898,29.878973,28.889227,28.902868,28.916789,29.934097,32.957914,33.975828,31.984742,29.993964,27.000365,28.019465,29.038835,25.042937,22.050390,18.054946,15.062786,16.083209,15.097568,14.112073,14.129823,10.135271,6.140817,5.155751,6.176953,6.195106,6.213318,3.222262,-0.771873,-0.753577,-0.735289,-0.717007,-1.701842,-0.680474,-4.674661,-7.665783,-7.647651,-6.626482,-5.605377,-8.596765,-8.578907,-6.554912,-2.524761,-4.513292,-4.495648,-7.487376,-10.479176,-9.458638,-2.419534,2.613328,-1.381772,-2.367556,-4.356473,-1.329884,-0.309526,-2.298501,-1.278169,-0.257849,-2.246860,-1.226565,3.806158,2.820259,1.834388,-2.160795,0.865769,1.886122,1.903383,1.920663,1.937962,-0.050941,1.972595,3.996150,6.019744,5.034066,3.045327,3.062838,2.077267,3.097937,5.121745,3.133165,4.153944,5.174762,0.176973,0.194734,7.234264,6.248986,4.260660,2.272374,0.284110,-1.704151,2.326229,2.344194,2.362180,1.377080,3.401322,2.416268,0.428128,-1.560008,1.467389,1.485471,0.500458,2.524779,3.546014,2.561064,2.579249,0.591239,-1.396765,3.636984,5.661440,5.679732,2.688749,1.704011,0.719290,1.740795,4.768536,0.774555,-0.210089,-1.194735,-3.182502,-1.157862,-0.136342,1.888286,0.903603,-2.087290,-6.081313,-1.047408,0.977159,1.998625,-1.995438,-1.977082,-0.955635,3.075131,4.096599,2.108777,-0.882135,-2.869945,-3.854673,-0.827000,2.200665,3.222132,3.240521,-0.753498,-1.738195,1.289529,3.314157,2.329487,0.341731,-3.652242,-4.636921,-2.612316,-0.587736,-1.572490,-0.551041,-4.545145,-0.514415,4.519419,3.534638,0.543673,-2.447287,-2.428942,-3.413730,-0.386112,1.638392,1.656693,4.684339,8.715140,14.752243,24.801928,32.845632,31.861667,28.871789,23.875970,20.886601,21.909871,20.927134,15.932160,14.949777,12.964430,10.979207,14.009638,17.040205,16.058497,14.073834,9.079978,3.083100,0.095580,1.120500,-3.873227,-6.860772,-10.851493,-12.836099,-10.808390,-7.777676,-7.756366,-7.735131,-9.720189,-11.705341,-13.690606,-13.669784,-12.645984,-14.631635,-14.611207,-18.603359,-15.573922,-15.553965,-14.531048,-17.520710,-16.498102,-17.481872,-17.462701,-18.446809,-23.443532,-23.424934,-25.412780,-17.369775,2.710378,38.840312,74.970620,121.132747,181.339576,233.523277,244.581734,205.487066,140.313529,84.169331,45.078808,22.038474,17.054326,17.085891,9.092743,6.115231,3.137778,-6.861412,-9.838901,-17.832033,-25.825337,-29.806451,-32.784743,-33.757132,-34.729846,-34.699785,-36.676278,-42.665564,-46.649041,-45.617420,-39.570690,-38.539890,-37.509461,-41.494942,-41.468385,-40.439118,-38.407130,-37.378623,-40.362915,-43.347596,-46.332694,-46.308911,-44.279354,-41.247115,-40.221493,-47.221135,-51.211904,-49.184508,-46.154477,-45.131111,-45.111289,-47.098121,-49.085407,-48.063837,-49.048950,-52.040756,-50.017514,-48.997865,-48.981797,-49.969311,-45.941759,-41.914649,-46.915931,-54.926993,-57.923037,-54.900981,-49.873236,-44.845971,-47.844015,-49.839412,-49.829069,-48.816097,-45.797376,-40.772878,-40.764320,-43.765485,-45.763962,-44.753551,-42.740462,-39.724675,-41.724819,-44.728476,-45.726344,-41.709105,-40.701596,-38.691371,-36.681518,-36.678239,-36.675312,-34.666521,-31.654953,-29.646801,-28.642044,-25.631344,-25.630219,-21.616904,-17.603796,-15.597078,-16.599839,-16.599650,-17.602731,-17.602872,-13.590744,-8.575638,-7.573052,-10.582979,-11.586788,-14.596928,-11.588551,-5.570956,-3.565854,-3.567006,-6.577521,-6.578770,-8.586302,-8.587698,-13.604724,-13.606334,-17.620513,-18.625533,-18.627623,-19.633002,-20.638571,-22.647448,-24.656544,-29.675206,-29.678606,-28.679182,-30.689364,-31.696732,-31.701296,-33.712384,-33.717579,-34.726208,-35.735172,-37.747590,-40.763481,-41.773547,-41.780905,-38.779337,-37.784362,-39.799081,-41.814183,-41.823468,-39.826938,-38.833901,-39.847458,-37.852070,-41.875705,-41.887305,-38.889980,-35.893030,-36.908864,-37.925054,-37.938500,-39.958531,-36.963400,-32.965514,-31.977276,-35.001784,-35.017301,-33.026936,-35.049328,-32.056509,-36.085768,-33.093606,-34.114202,-33.128908,-30.137714,-29.153029,-28.168626,-29.190713,-28.206863,-26.220175,-25.236849,-24.253766,-23.270918,-26.300732,-26.321471,-25.339353,-21.348152,-19.363375,-22.394333,-19.406849,-20.431991,-20.454220,-18.470427,-15.483703,-16.509566,-14.526260,-17.558642,-18.584973,-17.605265,-13.616397,-14.643209,-13.663943,-14.691028,-17.724473,-15.742542,-14.763871,-14.788453,-12.806958,-15.841135,-16.869245,-12.881969,-12.907256,-10.926449,-9.948856,-11.980688,-11.003307,-9.022922,-7.042624,-8.071723,-8.097790,-14.142593,-16.175094,-11.185983,-9.206309,-9.232943,-14.275214,-12.295856,-12.322835,-8.337494,-8.364673,-9.395041,-12.431720,-11.456079,-9.477440,-6.495782,-6.523516,-4.545093,-7.582263,-10.619505,-10.647521,-6.663201,-2.678945,-3.710263,-5.744727,-5.773027,-3.795163,-3.823555,-1.845765,-3.880431,-5.915134,-4.940565,-5.972264,-1.988472,-0.010918,-0.039583,0.934860,-3.106235,-0.125593,0.848829,2.826368,4.803935,4.775328,1.737439,0.705786,3.686578,8.673625,15.666975,19.651147,27.647947,30.629465,34.614388,33.584097,29.544800,28.515118,27.485710,27.459676,26.430798,26.405284,23.370696,20.336333,17.302167,15.271276,18.256081,23.247281,20.213829,16.177461,11.138140,7.102036,7.078439,8.058019,6.028349,7.008065,1.969191,-1.063444,0.919458,2.902370,0.872870,-1.156621,-3.186123,0.803002,0.779697,3.765727,3.742465,0.709911,-3.325747,-2.345888,-0.362943,3.626219,1.596757,-0.432689,-1.459030,0.523945,0.500705,-5.541188,-12.586244,-18.628312,-21.661231,-12.657042,12.396779,48.484925,95.607744,149.753253,213.931302,272.092755,302.169761,283.097308,229.921856,172.736182,120.567721,77.428410,60.370695,59.363316,53.340962,43.306683,34.275931,32.267278,28.252716,21.229097,13.202573,7.182396,1.162289,-2.851589,-0.846836,-0.848310,-5.865341,-8.876209,-14.896491,-16.904479,-13.897081,-10.889818,-14.904426,-13.903631,-16.915407,-14.911799,-13.911444,-12.911223,-12.914237,-13.920484,-13.923756,-13.927162,-11.924483,-12.931248,-13.938138,-12.938943,-15.952311,-15.956504,-14.957741,-12.956012,-11.957519,-14.971579,-15.979564,-17.990812,-12.980467,-9.976466,-12.991219,-15.002988,-17.014901,-16.017650,-16.023662,-11.014281,-11.020554,-13.033153,-16.048986,-15.052536,-12.050012,-10.050714,-9.054622,-10.064837,-12.078258,-12.085577,-11.089903,-8.088116,-5.086407,-5.094076,-7.108013,-6.112690,-2.108097,-0.109744,-1.120720,-1.128598,-2.139596,-1.144396,1.857013,4.858439,4.850584,3.839665,5.838113,7.836617,11.841415,17.852547,16.842084,14.828673,12.815406,10.802262,14.807879,22.826079,26.832059,28.832079,27.823048,27.817395,31.824449,33.825590,34.823947,36.825750,37.824798,36.817992,36.814650,36.811663,37.812141,36.806763,38.811070,40.815750,42.820825,42.820092,36.801115,35.798040,34.795311,36.802246,35.800206,32.792293,25.772257,22.764908,18.754669,14.744611,16.753353,16.756037,17.761992,13.752570,10.746390,8.743424,9.749870,8.750192,6.747488,5.747959,3.745376,1.742828,1.746517,0.747113,1.753936,-0.248554,-3.254155,-4.253569,-2.243694,-0.233842,-2.236430,-3.235930,-5.238571,-8.244372,-5.231595,-4.225087,-4.221730,-3.215303,-3.212018,-6.218092,-3.205569,-1.196186,-2.196143,-4.199231,-6.202360,-4.193110,0.825429,1.831537,1.834553,0.834477,-1.168701,-3.171890,-1.162671,0.846537,-1.156685,-2.156809,-3.156954,-1.147800,-0.141767,0.864264,-0.135915,-1.136096,-1.133178,-0.127161,3.888184,3.891127,3.894108,2.894017,1.893954,-2.115420,1.900062,1.903125,3.912425,2.912434,1.912471,-2.096802,0.915671,2.925044,0.922007,2.931417,2.934636,2.937884,5.950488,7.960040,7.963450,5.960717,2.954933,-0.050824,4.968296,8.984355,8.988061,4.979416,1.973928,2.980898,3.987896,7.001153,6.002038,5.002981,1.997753,-1.007456,2.005984,3.013223,4.020492,3.021579,2.022697,3.030052,5.040547,6.047981,7.055473,5.053704,0.042655,3.056483,5.067231,7.078028,3.070236,1.068692,2.076488,0.074975,1.082791,3.093727,4.101584,2.100151,2.104958,1.106675,2.114622,5.128809,3.127497,2.129325,1.131174,0.133033,2.144223,8.167872,5.163613,4.165623,1.161453,2.169734,3.178035,5.189477,4.191640,1.187624,-3.822600,-2.814203,-1.805833,4.218068,3.220242,2.222447,2.227783,4.239360,5.247868,6.256427,5.258826,1.251948,3.263739,4.272452,5.281207,4.283793,6.295749,6.301546,6.307405,10.325762,18.356658,28.393950,33.415968,34.425869,31.423663,26.415542,26.423222,27.434268,27.442468,25.444713,21.440985,19.443682,20.455896,21.468307,20.474705,19.481301,16.481865,12.479479,13.492761,14.506174,13.513506,6.502312,1.497399,-0.498171,-0.487525,0.526225,-1.469349,-0.455608,-1.448091,-2.440588,-3.433108,-4.425662,-5.418258,-5.407796,-6.400497,-7.393259,-5.376763,-4.363429,-5.356356,-5.346226,-8.345475,-11.344805,-8.325587,-4.303339,-4.293572,-9.299394,-13.302196,-20.314455,-25.320690,-28.320951,-29.315265,-16.266327,9.822880,48.952607,98.113902,151.288581,214.495815,266.670911,288.755289,260.686967,207.543418,153.398760,105.274239,67.181829,54.167807,52.188514,47.200394,40.206511,32.209905,28.226049,19.226916,7.218640,-0.777128,-5.763574,-12.756296,-19.749140,-22.729736,-22.701223,-24.679147,-24.651091,-25.626381,-25.598809,-28.580812,-30.559982,-31.536336,-27.497446,-26.468150,-29.451548,-29.425901,-31.406757,-29.375477,-27.344480,-26.316856,-31.308144,-31.284186,-31.260529,-26.221625,-27.201632,-25.172572,-27.156194,-29.140077,-27.111802,-25.083789,-23.056018,-21.028469,-25.019780,-28.008223,-28.990717,-29.973490,-25.941004,-26.924316,-28.910998,-25.882410,-28.872729,-26.847778,-27.832416,-27.814211,-27.796275,-27.778607,-27.761207,-24.734745,-19.702303,-19.685598,-22.678413,-20.655897,-24.652239,-26.642599,-20.608339,-21.596045,-20.577740,-19.559633,-20.547934,-20.533323,-20.518911,-14.486038,-15.475072,-14.458037,-13.441140,-10.418154,-8.398379,-7.381793,-5.362169,-5.348817,-4.332406,-3.316037,-0.293480,2.729073,1.739215,1.752482,1.765767,3.785288,6.807955,8.827578,8.841067,11.863970,14.886988,19.916368,22.939721,23.957075,23.971551,21.980039,22.998068,25.019428,26.037920,29.062881,29.078794,29.094988,29.111462,28.125107,29.145242,32.171877,30.183275,25.185634,22.194456,25.222149,22.231428,21.247140,15.247509,13.260463,10.270436,10.289836,8.303117,9.325806,7.339256,3.346558,0.357002,-2.632551,1.399638,-2.593036,-5.582626,-8.572269,-7.549557,-7.530027,-6.507460,-7.491175,-7.471852,-11.465040,-14.455229,-11.426900,-10.404900,-11.389220,-10.367430,-11.351959,-10.330378,-9.308897,-8.287506,-7.266195,-10.257392,-10.239359,-11.224535,-7.194270,-7.176514,-7.158826,-11.153647,-11.136136,-12.121842,-11.101446,-8.074937,-9.060945,-10.047040,-12.036342,-12.019541,-8.993526,-7.973817,-5.951076,-7.940831,-8.927552,-10.917469,-10.901272,-6.872742,-4.850497,-5.837628,-8.831034,-8.815197,-6.793225,-2.765100,-1.746330,-3.736906,-7.733737,-9.724423,-8.705875,-5.681191,-5.665890,-6.653754,-8.644792,-7.626584,-8.614668,-4.587288,-1.563062,-3.554399,-6.548879,-9.543423,-8.525620,-5.501681,-3.480903,-3.466379,-5.458108,-6.446779,-6.432403,-5.414979,-7.406936,-10.402075,-10.387985,-8.367775,-5.344537,-6.333789,-5.316882,-7.309356,-12.311229,-13.300782,-6.265586,-6.252218,-6.238911,-6.225663,-8.218695,-10.211806,-7.189468,-7.176527,-6.160546,-9.157063,-8.141230,-10.134804,-12.128476,-10.109826,-9.094384,-10.085248,-11.076209,-13.070387,-10.049143,-9.034215,-11.028703,-8.007749,-13.011749,-11.997217,-8.976581,-4.952922,-5.944859,-7.939963,-10.938254,-12.933540,-11.919621,-10.905818,-5.879681,-7.875369,-10.874242,-12.870110,-11.856773,-7.834222,-6.821075,-7.814213,-7.804317,-9.800715,-6.781660,-5.768889,-3.753064,-4.746605,-4.737081,-4.727603,-1.708842,2.313012,2.322450,0.325692,1.338265,0.344632,5.369660,7.385411,8.398123,9.410917,16.442459,19.461721,27.496718,34.528871,35.542700,33.547541,28.543378,21.533270,19.538918,21.557193,20.566347,17.569480,13.569672,12.579324,12.592207,13.608322,12.618348,9.622276,6.626297,3.630382,3.643831,3.657316,1.664616,-8.352945,-14.358148,-14.344832,-12.325434,-7.296827,-9.290057,-16.298925,-20.298621,-20.286074,-17.264394,-16.249100,-15.233962,-16.225191,-17.216576,-20.214346,-20.202982,-22.198032,-24.193296,-25.185683,-23.168985,-22.155619,-24.151796,-22.135768,-24.132391,-30.141685,-31.135722,-30.123839,-30.115357,-28.100946,-29.096134,-24.072945,0.009095,35.125341,72.248145,120.405851,181.605144,230.768871,245.829096,214.748646,165.614293,117.484647,75.374791,37.278100,21.250180,22.275329,21.294474,15.298275,10.305334,2.303163,-6.702095,-16.710527,-22.706682,-28.703056,-37.709036,-42.702940,-48.700366,-49.682713,-45.649991,-43.623928,-45.610724,-49.604179,-54.601222,-52.577024,-49.550223,-45.520790,-48.513564,-51.506805,-53.497433,-53.482357,-50.458468,-51.447504,-49.427707,-49.414606,-50.405090,-53.402280,-50.381327,-50.370189,-46.347097,-47.340000,-52.345799,-53.339663,-52.327822,-48.307157,-46.293177,-43.276533,-46.278965,-52.291171,-54.291443,-51.276690,-48.262432,-49.261077,-49.257088,-52.262902,-53.263001,-50.251174,-50.249161,-50.247633,-51.249698,-52.252257,-49.242882,-48.240201,-47.237984,-43.226894,-43.228659,-47.243280,-53.264575,-50.258397,-44.243375,-41.238108,-47.261225,-46.263030,-45.265282,-42.261750,-39.258626,-40.268319,-41.278400,-41.285769,-39.287317,-36.286134,-35.291520,-37.306576,-36.312662,-36.322207,-31.316555,-29.320533,-31.337233,-34.357344,-35.371568,-30.367474,-27.369893,-22.366356,-21.375473,-21.387906,-19.394325,-22.416480,-17.413974,-14.417855,-11.421875,-11.435334,-12.452013,-12.465703,-10.473293,-7.477874,-5.485638,-5.499673,-3.507542,-6.530993,-3.535850,-2.546959,1.451235,1.437005,-0.583430,-3.606980,-1.615018,-0.626180,-1.643568,-4.667190,-6.687748,-8.708371,-7.719749,-8.737420,-11.761395,-15.788593,-19.815943,-22.840374,-20.849477,-19.861891,-19.877607,-21.899733,-25.928289,-28.953986,-29.973742,-28.987569,-31.011003,-29.022298,-32.049421,-34.073743,-31.082846,-28.092248,-31.120579,-34.149210,-36.175060,-37.198149,-36.215378,-32.223627,-34.250845,-33.269063,-33.290712,-33.312682,-28.319425,-29.345099,-29.367946,-28.387966,-31.420699,-33.450625,-32.471544,-31.492776,-28.508093,-27.529904,-25.548871,-27.580522,-29.612439,-25.625984,-25.652215,-24.675583,-23.699189,-24.729243,-19.740877,-20.771359,-21.802042,-21.829825,-20.854709,-20.882904,-16.898861,-16.927420,-16.956142,-19.994357,-18.017216,-17.043358,-16.069665,-17.102346,-16.128972,-17.161973,-17.192030,-16.219143,-17.252632,-13.270739,-13.301412,-16.341542,-16.372501,-15.400509,-15.431774,-13.456969,-10.479184,-10.510828,-11.545684,-13.583761,-12.612640,-11.641640,-14.683191,-15.718665,-16.754289,-14.780747,-11.804237,-13.843390,-13.876456,-15.915876,-16.952339,-16.985856,-14.010208,-14.044024,-13.074866,-15.115162,-16.152495,-17.189983,-16.221418,-13.246790,-14.284728,-13.316585,-16.361008,-14.390041,-14.425432,-10.448524,-13.493484,-15.535464,-18.580703,-16.610574,-14.640605,-12.670776,-10.701070,-12.743906,-15.789974,-18.836194,-16.867048,-13.894955,-11.926105,-11.963589,-13.004299,-15.048243,-18.095442,-15.124158,-12.153020,-11.188218,-16.242181,-15.277644,-12.307034,-10.339653,-13.387919,-11.420767,-11.459944,-12.502340,-9.532419,-7.565700,-7.605272,-5.638699,-7.684619,-7.724393,-4.754913,-2.788588,-3.831619,-3.871578,-1.905354,3.070180,8.045743,13.021385,16.994042,25.982411,26.946153,20.888388,20.849482,18.804557,21.775363,19.730829,16.683377,12.632975,11.592025,12.557405,12.519797,10.476090,11.441813,10.401427,8.358031,7.317826,6.277692,2.228289,-1.821093,-5.870492,-7.913728,-6.947712,-5.981763,-7.022090,-9.065595,-11.109188,-10.143558,-9.178026,-8.212583,-10.256548,-12.300612,-12.338575,-14.382876,-6.396220,-9.443831,-11.488424,-12.530017,-12.568622,-8.594910,-8.633719,-7.669501,-8.711577,-13.766175,-18.820906,-21.869599,-25.921613,-26.964547,-20.985974,-7.985836,27.082637,71.179359,118.286095,177.431287,239.587518,278.674538,273.627419,231.467882,177.273260,128.095896,82.932205,54.822177,47.777980,44.746682,35.697158,29.657306,24.620851,16.575303,9.533025,6.503278,-0.538845,-6.577864,-14.623166,-11.634402,-14.664409,-15.688337,-13.703088,-16.733519,-15.751673,-17.779308,-21.813333,-19.828911,-18.847789,-16.863740,-16.886073,-16.908568,-15.928116,-16.954038,-16.977013,-17.000152,-17.023455,-18.050031,-18.073672,-21.106816,-20.127725,-16.139499,-16.163867,-15.185282,-16.213062,-18.244107,-15.259781,-15.284931,-15.310228,-19.348111,-22.383071,-18.396479,-15.413174,-14.436238,-14.462550,-14.489001,-14.515592,-15.545432,-14.569204,-13.593115,-12.617158,-13.647542,-16.684276,-15.708733,-11.724012,-9.745623,-10.776658,-13.814015,-13.842177,-9.858034,-7.880204,-8.911780,-9.943442,-8.968980,-10.000824,-7.020326,-1.030567,-1.059475,-1.088394,-4.126652,-3.152511,1.834037,2.808165,4.785430,7.765851,5.730798,7.708239,8.682644,11.663353,12.637955,15.618898,17.596881,16.565706,21.553348,20.522540,22.501259,24.480194,25.456256,24.426344,30.418435,33.401491,36.384868,38.365487,34.327817,35.306026,37.287686,39.269705,42.255212,42.231798,41.205681,40.179961,42.163958,42.142141,42.120731,41.096618,35.057352,35.037082,36.020260,39.010004,37.987685,32.953294,27.919221,22.885417,22.867382,22.849567,25.841301,24.820846,20.791302,14.755738,7.717207,2.684970,-1.344132,0.645411,2.634961,3.621426,2.601706,2.585122,3.571672,2.552037,4.541756,1.515970,3.505747,4.492448,4.476083,2.453542,2.437244,2.420969,3.407827,3.391608,2.372313,1.353040,1.336890,1.320753,2.307738,3.294746,5.284895,3.262656,3.246668,2.227602,7.227215,8.214459,11.208001,9.186104,4.154966,3.136306,4.123896,8.120855,7.102344,8.090121,7.071756,8.059679,6.038351,7.026409,9.017646,6.996530,6.981701,4.960720,5.949116,5.934460,6.922971,7.911548,10.906421,7.882741,6.865356,10.863586,13.858811,11.838621,10.821655,6.795464,6.781778,7.771266,7.757720,7.744248,3.718413,3.705052,5.697946,5.684676,5.671460,4.655190,4.642074,2.622783,4.615957,4.602955,6.596217,6.583324,3.561165,0.539040,2.532469,3.522813,1.503861,3.497363,3.484679,2.468919,5.465621,7.459267,7.446765,5.428116,2.406409,0.387835,3.384813,6.381824,5.366457,2.344923,3.335851,3.323700,5.317801,6.308844,5.293728,6.284883,5.269879,1.245596,2.236874,2.225064,3.216385,2.201518,0.183562,-1.834392,1.163185,5.163882,5.152191,7.146768,7.135196,6.120582,7.112246,8.103980,12.105120,13.097048,12.082883,10.065725,13.064212,15.059715,16.052254,18.048057,22.050254,23.043334,34.067732,40.076911,40.067819,34.040454,29.016528,30.011539,33.013059,30.999349,27.982828,24.966576,23.956785,22.947225,23.944105,22.934996,21.926109,21.920543,16.899640,10.875790,9.867593,4.847052,3.838997,2.830979,2.826098,1.818135,2.816408,-0.197730,-0.202541,-0.207354,-4.224607,-5.232573,-5.237479,-3.236216,-1.234985,-1.239985,-3.251216,-7.268697,-7.273810,-6.275884,-4.274908,-4.280193,-7.294849,-15.325122,-19.343105,-23.361274,-20.357901,-10.332957,15.741642,55.859927,109.019177,172.210573,242.425398,288.567927,286.563976,230.394867,167.206211,117.059593,76.945199,60.906179,59.914390,55.913849,48.904519,42.898770,32.880996,22.863539,11.843193,-2.186368,-7.187964,-12.189629,-12.175863,-12.162214,-14.154902,-19.157055,-18.140735,-17.124590,-17.111720,-17.099015,-20.095803,-22.089676,-22.077542,-22.065621,-20.047693,-21.039288,-19.021756,-23.023066,-21.005940,-20.995236,-21.987843,-20.974444,-22.970575,-22.960708,-18.938625,-14.916724,-15.910515,-14.898240,-15.892328,-15.883459,-17.880963,-19.878639,-20.873397,-19.862137,-16.844850,-20.849492,-22.848116,-23.843850,-21.830486,-21.823551,-21.816827,-24.819641,-22.807147,-21.797982,-20.789028,-16.770945,-19.774791,-20.772608,-18.761297,-19.759496,-15.742337,-14.734658,-14.730231,-14.725946,-16.728023,-13.714712,-10.701534,-11.700897,-11.697264,-11.693743,-7.677897,-5.668344,-4.661955,-5.661830,-6.661760,-4.652425,-1.640025,4.381687,3.381675,4.387914,4.391086,5.397410,10.416225,14.432030,17.444865,19.454759,13.439962,16.453282,21.472980,23.483557,30.509907,30.514785,29.516846,27.516083,27.521804,33.546449,34.555868,36.568731,37.578836,36.583084,39.600123,40.611325,38.613590,38.622446,36.625455,33.625707,31.629393,32.642713,34.659458,32.664097,29.665943,25.664964,23.670452,21.676168,22.691423,18.691347,11.682123,10.691670,11.707539,11.720411,13.739615,8.737184,5.741057,1.741875,1.755149,3.774659,3.787986,1.795131,2.811621,-0.184300,-0.170893,-0.157489,-1.147195,-0.130694,-0.117303,-2.110132,-0.090544,0.925934,1.942421,-1.053512,-3.046345,-3.032988,-1.013442,1.006095,0.016313,-1.976579,-0.960161,-0.946862,1.072647,4.095276,2.102397,3.118867,1.126038,0.136329,0.149731,4.175573,6.195237,5.205631,5.219185,4.229679,3.240215,3.253891,4.270708,2.278238,1.288899,0.299572,1.316468,1.330267,3.350297,2.361032,2.374898,0.382568,2.402681,4.422816,4.436775,3.447668,-0.550736,-0.536706,1.483537,3.503795,3.517868,2.528865,3.546105,1.554051,1.568231,2.585536,1.596646,2.613992,1.625143,0.636309,2.656811,1.668009,2.685443,2.699793,4.720389,3.731701,3.746158,3.760652,4.778291,2.786648,4.807470,3.819010,3.833696,5.854638,6.872527,6.887373,7.905394,5.914163,3.922989,3.938072,4.956303,1.962143,-0.028889,-2.019921,0.001467,3.025964,4.044270,5.062616,4.074791,-0.925433,-0.910117,2.114518,1.126735,1.142073,1.157422,0.169672,3.194363,7.222194,6.234546,-0.771699,0.246925,-1.743777,3.287271,6.312132,7.330834,4.337169,4.352874,0.356183,3.381262,8.412594,11.437787,8.444433,7.457379,9.479726,15.514603,21.549630,27.584864,33.620365,35.643751,31.648822,27.654199,28.675390,29.696858,25.703064,23.715737,19.722420,18.738621,18.758113,18.777785,17.794529,16.811445,12.819193,8.827065,6.841242,3.852375,3.872874,2.890300,0.904645,-2.084111,-3.066668,-4.049254,-4.028770,-7.017654,-8.000386,-7.980086,-7.959862,-5.933496,-8.922735,-9.905841,-10.889043,-6.856801,-7.840173,-5.814293,-6.797797,-7.781367,-10.771231,-11.754979,-14.745060,-19.741503,-22.731916,-23.716330,-14.669876,20.457288,58.593978,105.759219,165.965905,234.199068,282.372296,286.411422,241.300936,180.143023,121.996174,76.890928,54.857944,54.893901,50.917948,46.942487,38.955039,29.964857,19.971855,12.988374,5.001908,1.027930,-9.967807,-15.948091,-17.916090,-19.884262,-18.843297,-15.796294,-17.764992,-19.733861,-23.709139,-23.672208,-23.635504,-19.586590,-22.559632,-22.523563,-24.493930,-26.464533,-24.422953,-20.375389,-21.343570,-24.318175,-27.293015,-27.258790,-25.218607,-22.175559,-24.148272,-23.111889,-25.085057,-22.042920,-24.016543,-20.974849,-21.945796,-23.920065,-24.891454,-22.853754,-22.822494,-21.788344,-24.766843,-23.733142,-25.708999,-22.669555,-21.636549,-19.600643,-21.577363,-21.548072,-27.537647,-23.496391,-22.464691,-17.420768,-18.395671,-19.370752,-22.352238,-19.315282,-18.284732,-15.248139,-15.221021,-17.200270,-17.173465,-14.137496,-14.110993,-12.078407,-13.055266,-10.019812,-9.993784,-7.961633,-5.929558,-2.894431,-1.865552,-2.842909,-3.820294,0.217832,2.249742,7.291001,6.313674,6.339517,6.365420,10.403824,13.439219,16.474743,21.516645,23.549425,23.576214,24.606339,23.630482,23.657963,24.688781,26.722947,26.751152,26.779614,29.817663,31.852890,30.879095,31.911817,27.929299,26.956379,29.996157,31.030005,32.064152,29.086169,25.105358,21.124788,21.156861,21.189138,18.212289,12.226288,10.252843,9.282606,10.318679,6.339302,3.363096,3.396252,-3.592327,-2.556064,-0.516716,0.519518,-1.453572,-3.426676,-4.396704,-4.363664,-4.330667,-3.294601,-5.267896,-7.241242,-9.214658,-9.181943,-7.143098,-4.101212,-4.068694,-6.042435,-8.016234,-7.983891,-4.942296,-4.910077,-5.881016,-6.852011,-7.823073,-5.784880,-5.752963,-3.714882,-3.683056,-6.660595,-7.631978,-7.600326,-4.559418,-1.518553,-2.490142,-2.458645,-6.439611,-7.411310,-5.373751,-2.333134,-8.320527,-8.289342,-8.258237,-8.227211,-9.199375,-5.156079,-3.119052,-4.091383,-7.069974,-6.036194,-6.005582,-2.965699,-5.944503,-6.917144,-7.889852,-7.859527,-7.829277,-3.786665,-2.753417,-2.723306,-5.702550,-6.675630,-6.645664,-5.612653,-5.582806,-6.556122,-9.535720,-9.506082,-6.467206,-4.431503,-3.398951,-5.375761,-9.358843,-8.326466,-4.284841,-4.255696,-4.226591,-7.206857,-6.174753,-7.148928,-6.116952,-4.081926,-3.050049,-6.030640,-10.014399,-7.979596,-5.944871,-3.910202,-4.884901,-7.865865,-6.834467,-6.806245,-7.781197,-4.743786,-2.709531,-4.687740,-7.669104,-6.638103,-5.607167,-3.573175,-2.542326,-5.523941,-10.511829,-9.481160,-8.450582,-6.416976,-7.392761,-9.371727,-11.350783,-11.323730,-6.281237,-3.245024,-5.224391,-5.197588,-6.173946,-4.141034,-4.114381,-3.084658,-4.061184,-3.031531,-5.011235,-0.972330,2.063457,2.089934,1.113322,0.136720,-3.849209,-1.816518,2.222376,7.264400,12.306495,15.342488,22.391069,26.430536,27.460929,25.482258,23.503832,20.522524,19.547632,17.569820,17.598396,16.624032,15.649828,11.666446,11.695615,10.721788,10.751173,9.777552,5.794697,5.824336,2.844702,-1.138014,-5.120740,-6.094188,-9.073913,-10.047507,-12.024307,-9.988784,-7.953358,-8.927337,-9.901402,-10.875563,-14.859158,-13.827347,-12.795670,-12.767226,-12.738905,-18.729365,-17.698237,-19.676609,-15.636513,-13.602787,-13.575412,-15.554386,-15.527292,-18.509676,-20.489128,-25.478107,-29.464222,-32.447512,-30.415566,-6.315501,30.824928,75.990532,128.178635,190.399071,246.602684,271.712276,250.681443,195.547299,135.399492,83.277868,50.216129,43.235725,42.274396,37.301036,29.318706,22.339769,12.351718,2.363786,-4.614795,-12.596529,-18.572165,-23.544871,-27.514694,-29.478564,-27.430278,-27.388477,-31.359378,-33.324362,-34.286558,-34.245974,-34.205721,-35.168907,-36.132432,-34.086977,-37.057398,-37.018848,-35.977544,-33.933478,-33.895959,-34.861876,-33.821909,-34.788488,-33.749183,-33.713313,-32.674658,-34.645647,-35.613861,-36.582418,-36.548218,-32.501931,-34.474616,-37.450743,-37.417902,-37.385421,-36.350191,-33.309093,-26.255877,-30.237120,-31.209326,-34.188051,-33.154668,-32.121605,-34.098180,-36.075083,-37.049225,-35.014395,-31.976793,-28.939499,-31.921142,-35.906203,-36.882280,-29.833836,-29.807447,-26.772017,-26.746173,-28.726807,-29.704608,-24.664037,-26.645472,-26.620944,-22.584234,-25.569510,-25.545703,-24.519032,-19.480160,-17.450804,-17.427836,-17.405035,-19.388622,-15.353738,-13.325221,-9.290613,-10.271643,-9.246553,-10.227771,-7.196649,-3.162487,-0.131465,0.893336,1.918146,1.939865,3.967822,8.002036,10.030109,12.058278,11.077234,10.096297,11.121676,15.156492,19.191454,19.214162,17.230837,18.257006,18.280242,21.312982,21.336600,22.363532,20.381352,18.399367,20.429999,18.448389,17.470067,14.485693,13.507679,9.520466,7.539564,7.564954,5.584197,2.600385,1.622817,-4.370283,-4.344768,-4.319295,-4.293863,-7.277801,-10.261810,-11.239699,-13.220805,-10.186491,-11.164713,-12.143043,-17.133929,-18.112541,-18.088218,-18.064070,-16.033876,-15.006947,-14.983271,-17.969070,-15.939493,-16.919399,-12.883920,-13.864113,-15.847549,-18.834248,-18.811800,-14.777094,-9.739421,-12.726719,-15.714140,-16.695493,-15.670788,-12.640014,-10.612472,-13.600580,-14.582601,-18.574090,-17.550211,-13.517172,-11.490482,-11.470123,-13.456093,-19.454632,-15.422262,-14.399369,-12.373506,-10.347761,-9.325227,-14.321439,-11.292913,-11.273825,-10.251736,-11.235964,-12.220302,-12.201647,-11.180000,-9.155351,-9.137010,-10.121867,-12.109931,-11.088783,-13.077070,-10.049935,-9.029117,-10.014605,-12.003299,-15.998328,-14.977963,-12.954633,-10.931427,-11.917656,-14.910219,-15.896707,-13.874019,-10.848355,-9.829015,-12.822208,-10.799976,-12.790287,-11.771393,-9.749503,-8.730816,-10.721542,-14.718591,-15.706452,-15.691356,-15.676411,-12.652288,-11.634506,-9.613727,-12.608588,-13.597352,-11.576918,-11.562815,-12.551933,-14.544282,-17.539880,-14.516990,-14.503569,-12.484068,-16.483345,-16.470343,-17.460609,-15.441714,-12.419859,-11.404343,-10.388936,-12.382959,-15.380211,-14.365172,-14.353382,-13.338620,-13.327096,-14.318811,-16.313773,-16.302674,-13.282402,-10.262259,-10.251543,-14.253365,-16.249105,-15.235672,-14.222387,-13.209238,-14.202436,-16.198881,-18.195482,-17.182929,-15.167433,-12.148973,-11.136849,-11.127942,-12.122253,-12.113570,-9.095676,-5.074759,-2.057001,-0.042372,2.975366,6.996242,11.017185,19.050674,21.065688,25.087124,23.090145,23.099607,20.099963,22.116062,21.123044,17.120901,14.122033,14.132630,14.143363,15.157342,12.159028,8.157723,8.168934,7.177114,5.182254,4.190554,1.192675,-3.811412,-7.812426,-11.813516,-10.799171,-12.794259,-12.783251,-14.778586,-14.767844,-15.760354,-11.737468,-10.724023,-11.716902,-14.716112,-18.718574,-14.696340,-15.689795,-14.677182,-14.667821,-17.667930,-18.661989,-19.656229,-19.647548,-19.639057,-21.636975,-27.647539,-31.652151,-35.657068,-32.640561,-11.568396,22.544084,64.681657,112.838513,176.043100,234.233837,256.314884,234.261578,179.107912,125.962192,80.842564,48.764140,37.751489,36.770297,27.764584,16.752918,11.760072,7.770449,4.784011,0.794509,-7.207424,-19.221865,-26.220943,-27.201616,-24.170113,-29.163720,-32.151388,-38.148696,-38.127713,-38.107098,-36.080631,-36.060731,-38.047398,-39.031322,-41.018732,-38.994099,-37.972951,-38.958389,-39.944203,-40.930401,-38.907665,-36.885304,-35.866408,-38.860297,-38.845231,-39.833649,-35.806904,-33.786722,-29.760647,-31.753517,-36.756022,-36.743333,-33.721669,-31.703440,-29.685516,-28.670989,-31.669176,-34.667669,-34.657166,-31.637669,-29.621587,-30.615119,-32.612056,-34.609307,-33.597563,-33.589253,-29.568827,-28.558016,-30.556809,-29.546567,-31.545940,-26.523849,-24.511342,-26.511510,-29.515044,-28.506424,-28.501187,-22.477568,-21.469714,-20.462067,-23.467055,-23.462941,-19.446615,-16.433585,-15.426933,-17.429759,-19.432753,-18.426605,-14.411306,-13.405475,-10.393554,-8.384843,-6.376212,-8.380082,-8.377813,-7.372515,-1.351740,1.659693,2.664923,0.660850,4.675440,5.680747,8.692328,9.697774,9.700203,10.705835,12.714681,15.726758,20.745207,22.754526,23.760955,21.758285,21.762043,24.775340,25.782657,27.793331,26.794945,26.799927,25.802057,22.798217,26.816364,27.825441,23.819238,17.807045,17.813681,16.817380,20.836789,16.831522,14.832636,12.833893,9.832164,9.839859,11.853869,6.846225,2.841756,-4.172014,-3.160947,-1.146801,-2.141995,-3.137209,-4.132454,-10.143287,-9.132450,-8.121701,-8.114140,-8.106657,-11.108581,-13.107503,-10.091003,-10.083929,-9.073843,-8.063844,-14.075691,-15.072124,-14.062484,-11.046761,-10.037362,-10.031171,-11.028185,-13.028416,-14.025663,-12.013716,-6.992555,-6.987011,-7.984643,-10.988572,-11.986387,-10.978098,-8.966806,-8.961820,-7.953810,-11.961425,-8.947388,-7.939656,-7.935111,-7.930642,-9.932469,-10.931281,-7.917761,-6.910537,-3.897159,-4.896258,-4.892294,-6.894597,-6.890747,-2.874525,0.138560,-2.867012,-3.866392,-4.865809,-3.859054,-3.855446,-1.845656,-0.838993,-3.844777,-5.847488,-6.847146,-3.834431,-3.831083,-3.827771,-7.836934,-9.839954,-7.830631,-5.821382,-5.818409,-4.812383,-7.818841,-6.812937,-6.810207,-6.807544,-5.801836,-2.789965,-5.796778,-7.800538,-7.798154,-6.792735,-4.784273,-6.788294,-7.789272,-5.780996,-4.775885,-3.770820,-4.772011,-3.767029,-5.771412,-5.769631,-6.771015,-3.760026,-4.761512,-4.759934,-4.758402,-6.763136,-4.755496,-4.754121,-4.752791,-6.757727,-7.759619,-7.758475,-8.760516,-3.743984,-5.749255,-4.745253,-4.744406,-4.743605,-6.749069,-7.751488,-6.747763,-3.737883,-5.743588,-7.749348,-9.755183,-7.748673,-7.748457,-5.742097,-7.748230,-8.751329,-6.745183,-5.742212,-4.739296,-3.736425,-4.739810,-6.746351,-5.743627,-4.740959,-1.732117,-1.732621,-1.733142,-3.739898,-1.734253,1.274486,1.273909,2.276453,5.285238,8.294074,18.324758,27.352509,30.361865,32.368405,29.359708,24.345076,25.349335,28.360059,26.355507,21.341881,18.334680,18.336984,17.336356,18.342114,19.348048,17.344841,13.335581,8.323340,3.311179,1.308380,0.308702,0.312137,-1.690644,-5.699661,-5.696294,-2.683653,-3.683477,-4.683336,-6.686350,-8.689428,-9.689480,-8.683407,-9.683636,-7.674630,-9.678137,-10.678627,-11.679220,-10.673707,-8.665186,-8.662969,-11.670164,-15.680581,-10.663162,-10.661395,-13.669059,-17.679964,-24.700369,-27.708574,-21.689059,-2.629327,28.467695,65.583649,109.722002,166.901839,229.098833,266.220294,248.173292,191.007406,133.843361,86.711703,59.643073,49.627883,49.644267,42.639362,34.631759,29.633818,21.626834,15.626278,8.622763,-5.402436,-13.409030,-17.403314,-19.391547,-22.383077,-23.368603,-24.354354,-25.340340,-28.332789,-31.325512,-31.309208,-29.286986,-29.271266,-31.262047,-32.250020,-33.238304,-31.217580,-30.200266,-28.180133,-29.169601,-31.162460,-34.158729,-31.136669,-31.124239,-30.108999,-32.103378,-33.094957,-33.083745,-30.063523,-32.059139,-33.051955,-31.035760,-32.029194,-32.019826,-30.004548,-27.989559,-26.977950,-28.975930,-30.974189,-29.963417,-29.956044,-29.948960,-29.942165,-32.944987,-31.935688,-31.929807,-30.921124,-28.909629,-26.898413,-26.893675,-30.901636,-29.894346,-25.878015,-24.871263,-22.861641,-26.870897,-25.864863,-24.859080,-21.847316,-18.835763,-17.830611,-19.834960,-22.842610,-19.831822,-16.821225,-14.813900,-15.816047,-17.821455,-13.808378,-10.798544,-8.791923,-3.776058,-5.781997,-4.778663,-6.784703,-1.769042,-0.765836,4.249800,6.256149,8.262559,7.259719,7.260058,12.276016,14.282763,16.289648,15.287361,16.291441,16.292568,19.303181,23.317089,25.325004,25.326943,25.329126,24.328444,26.337325,28.346460,29.352759,25.343792,25.347509,25.351469,23.349455,24.356995,21.352331,19.350982,18.352930,16.351945,13.348008,12.350419,12.356058,8.349379,6.348999,4.348680,5.357732,2.354397,0.354194,-1.646005,-4.649330,-1.634041,-8.649865,-3.628457,-5.628851,-7.629299,-6.620492,-9.624187,-7.612427,-9.613179,-9.607804,-9.602522,-11.603551,-10.595364,-11.593498,-8.579305,-10.580743,-9.572954,-11.574587,-10.567002,-8.556409,-5.542789,-7.544771,-10.549935,-11.548981,-10.541920,-6.525631,-6.521844,-6.518120,-8.520677,-10.523317,-8.513620,-7.507114,-5.497571,-8.503630,-10.506661,-10.503573,-9.497478,-8.491473,-2.470003,-3.470324,-3.467568,-7.477285,-9.480855,-7.472077,-4.460261,-4.457818,-6.461637,-8.465518,-9.466371,-6.454877,-3.443445,-3.441375,-6.448667,-6.446693,-5.441671,-5.439811,-5.438003,-9.448687,-8.443913,-8.442330,-7.437719,-4.426961,-2.419355,-3.421101,-6.429099,-6.427831,-6.426624,-5.422370,-3.415058,-5.420218,-5.419211,-7.424475,-7.423592,-5.416561,-0.400253,-5.415045,-4.411232,-6.416790,-4.409972,-4.409415,-3.405791,-5.411529,-5.411100,-5.410723,-5.410398,-5.410126,-2.400576,-1.397269,-4.406414,-7.415602,-5.409312,-2.399966,-0.393752,-3.403090,-4.406241,-7.415654,-8.418920,-6.412938,-3.403908,-3.404239,-3.404604,-5.411220,-6.414780,-5.412181,-2.403416,-2.404002,-2.404612,-6.417684,-7.421488,-3.409816,-1.404396,-3.411428,-5.418493,-6.422501,-8.429680,-4.418282,-1.410037,-1.411135,-1.412245,-4.422699,-7.433195,-4.425105,-2.420167,0.587857,-0.416552,-0.417855,-1.422272,1.585736,3.590650,5.595598,3.588162,1.580760,4.588922,10.606457,20.636533,27.657478,31.669362,29.662892,26.653600,23.644564,29.663743,25.652111,20.637617,18.632651,16.627864,19.638786,20.643678,15.630111,10.616695,8.612710,6.608808,8.617408,7.616763,-1.408686,-5.418601,-8.425458,-8.423067,-8.420758,-8.418530,-11.425712,-13.429894,-12.424877,-12.423089,-12.421422,-10.413654,-13.421535,-16.429546,-16.428386,-20.439823,-17.429689,-15.422833,-21.441003,-20.437613,-19.434419,-19.434522,-17.428593,-16.425942,-18.432778,-21.442902,-25.456341,-31.476246,-32.480906,-28.470330,-16.435152,11.649622,52.774933,100.922521,165.120836,225.308304,249.385996,224.313721,161.125442,106.966702,59.830762,33.760700,20.731389,13.720936,3.701286,4.715878,5.730516,2.732770,-7.286717,-13.293836,-23.313521,-29.320993,-32.319418,-31.305716,-31.295426,-31.285438,-33.281970,-34.275713,-35.269787,-35.261092,-37.258955,-40.260287,-40.252679,-39.242348,-38.232397,-36.219704,-34.207360,-35.204675,-38.208548,-40.209680,-38.198762,-35.185102,-37.187329,-38.186805,-39.186649,-38.180652,-35.168803,-34.163513,-39.177210,-37.169517,-40.177731,-40.177003,-37.167333,-32.151802,-35.161459,-41.180783,-42.184956,-37.170878,-33.160268,-32.159307,-35.171094,-36.177000,-35.177037,-33.174302,-33.178107,-34.185341,-33.186686,-35.197679,-35.202793,-34.205136,-32.204699,-29.201463,-28.204728,-30.217593,-31.227641,-32.237989,-29.236209,-27.237821,-28.249025,-30.263610,-27.262939,-27.271860,-25.274824,-22.274923,-19.275236,-21.291283,-22.304425,-22.314673,-18.312698,-12.304680,-13.318548,-13.329434,-12.337340,-10.342255,-8.347269,-4.346145,-5.360611,-4.368909,-3.377249,-2.385622,1.615311,5.616260,5.604824,4.590332,4.578995,4.567701,11.578220,15.579520,15.568533,13.551476,14.543879,16.539532,18.535344,21.534444,17.511985,17.502133,16.489339,15.476705,14.464221,17.464314,12.439698,15.440079,13.425061,8.400844,6.386036,6.377510,6.369044,5.357531,1.336740,-1.680928,-3.695503,-1.697675,-4.715411,-5.726974,-7.741701,-9.756503,-10.768290,-11.780180,-13.795294,-15.810540,-15.819720,-15.829052,-15.838537,-13.841955,-12.848616,-12.858511,-14.874749,-16.891130,-11.885907,-8.887017,-11.906871,-14.926840,-14.937624,-13.945442,-11.950285,-11.961462,-14.982084,-13.990411,-15.005093,-14.013700,-15.028661,-12.031329,-15.052771,-16.068138,-16.080551,-15.090009,-13.096503,-10.100013,-9.109840,-12.132193,-13.148445,-15.167932,-13.175127,-14.191778,-15.208566,-17.228610,-14.233272,-12.241181,-8.242989,-5.247986,-9.274800,-10.292376,-14.319379,-14.334082,-11.339594,-10.351435,-12.372704,-13.390983,-11.400062,-11.415471,-10.427880,-10.443499,-13.468547,-14.487506,-12.497276,-12.513386,-11.526506,-13.549067,-17.577977,-18.597729,-14.602111,-14.619072,-14.636174,-13.650308,-15.673903,-15.691429,-16.712216,-18.736274,-18.754293,-13.756945,-12.772167,-12.790623,-15.818531,-14.834153,-11.843698,-11.862687,-11.881790,-14.910336,-13.926588,-15.952303,-14.968842,-14.988636,-15.008574,-19.041095,-15.048923,-15.069334,-13.083672,-13.104355,-13.125164,-15.152319,-15.173400,-16.197738,-15.216012,-13.231324,-13.252982,-15.280987,-17.309140,-20.340569,-16.350427,-14.366662,-11.379925,-11.402627,-16.440988,-18.470177,-15.483997,-10.491747,-11.518255,-12.544875,-11.565396,-12.592248,-8.603674,-7.624511,-8.651641,-6.669525,-4.687474,-5.714797,-2.729736,3.264627,7.252803,7.228610,15.229363,18.214715,21.200243,20.173537,17.140806,15.111349,13.082039,11.052854,10.026886,9.001014,5.969010,2.937063,-0.094855,-0.117445,2.869292,3.849838,-2.191347,-1.210785,-5.245783,-10.283941,-11.309760,-10.329468,-11.355496,-16.394071,-19.426586,-22.459287,-20.476657,-16.488005,-15.508840,-15.532935,-18.566509,-22.603371,-20.621793,-16.634195,-18.665415,-20.696815,-20.722195,-19.744665,-16.761106,-15.783929,-19.822451,-21.854945,-19.875212,-20.904999,-21.934987,-27.980735,-32.020534,-34.054422,-25.054432,3.004399,49.119233,106.268747,167.431723,236.621191,285.750747,286.733794,240.573453,180.371896,115.156529,58.970260,29.868519,15.813710,5.771493,-6.276889,-13.309782,-13.321036,-15.338638,-19.362607,-21.380544,-26.408015,-30.432632,-36.463761,-39.485912,-36.489787,-35.500232,-36.517239,-37.534598,-38.552319,-41.576631,-41.592015,-39.601580,-35.605308,-37.628037,-37.644909,-42.677692,-40.689120,-40.707158,-37.716261,-38.738165,-41.766662,-41.786233,-41.806207,-38.817255,-37.834896,-36.852902,-35.871263,-37.899299,-38.924591,-35.937819,-33.954504,-31.971515,-36.007493,-36.031379,-37.058723,-34.073985,-32.092685,-32.117913,-35.152781,-35.178658,-33.198655,-33.225191,-30.242719,-31.272977,-29.294207,-30.325049,-30.353073,-29.378281,-26.397552,-26.426407,-26.455516,-29.494209,-30.526968,-27.547582,-22.562242,-21.589559,-22.623302,-21.651045,-21.682106,-20.710266,-16.729298,-14.754709,-16.792702,-15.821527,-15.853615,-12.876526,-7.893342,-4.916454,-3.945832,-3.978358,-4.010923,0.972022,2.945648,5.922412,7.896123,8.866800,7.831344,10.808402,15.791783,17.765988,17.734144,18.705582,18.674089,21.652106,26.636551,29.615033,26.575143,24.538619,22.502331,24.478699,28.461522,28.432181,28.403114,26.368101,21.324014,22.298790,22.270672,19.233439,17.199501,17.171948,14.135232,13.104872,13.077747,9.038310,3.995851,1.962759,-0.070315,0.905940,2.885314,0.852277,-1.180753,-5.220012,-8.256213,-6.276945,-3.294627,-7.334109,-7.361223,-11.400847,-11.428142,-8.446218,-6.467485,-7.498144,-9.531984,-11.565917,-14.603070,-10.618597,-8.640445,-9.671706,-10.703060,-8.725188,-10.759839,-9.785264,-7.807674,-6.833270,-7.865150,-7.893996,-9.929138,-3.939499,-4.971665,-5.000769,-6.033031,-6.062241,-5.088401,-6.120828,-3.140877,-4.173394,-4.202841,-6.238549,-4.261878,-0.279028,-1.311730,-2.344444,-1.370962,-1.400602,-6.445804,-2.463082,1.519617,0.486782,-1.549158,-4.588222,-7.627331,-4.647855,0.337795,-0.695209,-3.734440,-3.764377,-3.794351,-4.827471,-2.851308,-3.884502,-1.908405,-1.938545,-2.971814,-0.995782,-0.022869,-1.056176,-2.089493,-4.125940,-4.156208,-1.177186,1.801824,-0.234697,-3.274330,-3.304665,-4.338142,-1.359222,-1.389644,-1.420079,-1.450529,-4.490321,-3.517718,-0.538929,2.439854,-0.599997,-3.639853,-2.667307,-4.704114,-3.731639,-2.759199,-2.789896,-2.820619,-2.851370,-5.891477,-0.906763,1.068612,0.034669,-3.005492,-2.033245,-4.070346,-4.101266,-0.119788,-1.153859,-1.184832,-3.222035,-2.249941,-2.280978,-0.305817,-1.339988,-0.367953,-2.405251,-4.442572,-0.461277,2.516903,1.482669,-0.554660,-1.588885,0.386203,2.361295,6.342630,4.305367,3.271256,3.240286,4.212457,6.187778,9.166268,8.132408,9.104846,13.086700,17.068681,25.063265,33.058090,36.037686,36.008300,32.969933,31.938102,30.906580,31.881575,29.847548,24.804480,21.767870,21.740799,21.713938,21.687286,25.673281,23.640867,18.599351,15.564234,16.541705,13.506897,7.462891,5.431395,5.406171,1.368560,2.346511,4.327593,3.299389,0.264997,-3.772501,-4.800708,-3.822741,-0.838592,-0.863780,-1.892085,-4.926629,-4.951891,-4.977200,-2.996339,-2.018616,-5.053351,-6.081915,-4.101209,-4.126762,-8.164793,-16.215341,-21.256717,-22.285859,-16.293449,9.760997,50.862182,100.991844,162.156685,227.335529,286.497906,310.554207,277.436252,218.240122,156.036766,103.866011,73.764669,67.738670,65.725762,55.688610,46.655106,36.618941,27.586239,18.553802,8.518435,-1.516850,-10.549040,-16.572002,-16.576467,-15.577981,-14.579646,-15.587671,-17.598956,-20.613520,-24.631392,-22.630844,-20.630514,-20.636602,-23.652218,-26.668062,-24.668615,-24.675625,-22.676653,-24.690339,-23.694934,-24.705977,-26.720367,-23.719467,-22.725014,-20.727671,-22.742967,-26.764701,-21.758706,-21.768469,-21.778442,-21.788625,-22.802128,-23.815850,-22.823583,-21.831536,-17.830370,-19.848034,-21.865890,-25.890175,-25.902271,-23.908398,-20.911646,-22.930643,-25.952972,-22.956892,-19.961034,-17.968478,-17.982314,-17.996324,-19.013617,-23.040422,-22.051901,-18.054263,-16.063019,-15.075040,-16.093425,-19.118184,-18.130689,-16.140260,-11.140657,-9.150490,-10.169740,-11.189089,-9.199216,-5.203213,-2.210370,-1.223767,-1.240285,1.752513,4.745328,5.731970,9.727996,13.724115,12.704819,13.691865,16.685261,19.678819,24.678786,24.663442,22.642117,20.621010,22.612540,26.610508,33.618061,31.597951,31.584365,31.571084,30.554998,35.557864,38.554853,38.542885,35.521960,31.498267,31.487317,36.492218,38.488142,35.468890,30.443759,25.418923,24.406769,25.401071,20.376959,19.365483,15.344864,10.321283,7.304021,10.305488,10.297725,3.268293,0.251332,-0.759408,-1.770154,0.228411,1.223868,-1.793101,-3.806978,-8.830220,-7.834890,-5.836526,-4.841328,-5.852395,-7.866629,-7.874719,-10.892214,-7.891156,-7.899503,-7.907926,-8.919535,-7.925011,-9.939892,-2.926882,-4.941888,-5.953831,-6.965831,-8.981009,-8.990053,-7.996075,-8.005284,-8.014569,-9.027042,-12.045820,-10.049167,-6.046391,-3.046784,-5.062753,-9.084991,-8.091768,-8.101733,-7.108667,-4.109449,-3.116491,-7.139111,-6.146251,-6.156560,-5.163819,-4.171128,-5.184696,-5.195205,-7.211982,-7.222611,-5.227089,-6.240947,-7.254865,-9.271963,-9.282930,-8.290878,-8.302015,-5.303903,-4.312062,-4.323371,-9.350271,-8.358603,-7.367015,-5.372389,-4.380925,-8.405051,-10.423038,-13.444236,-7.437576,-4.440317,-5.455540,-7.473924,-9.492381,-9.504710,-6.507802,-4.514066,-5.529702,-5.542283,-6.558026,-8.576942,-8.589721,-8.602584,-5.606200,-6.622309,-10.647810,-11.664086,-8.668035,-7.678287,-6.688613,-8.708333,-9.725026,-9.738704,-6.743147,-4.750765,-5.767757,-6.784805,-8.805028,-9.822226,-6.827080,-8.847548,-5.852554,-8.876273,-11.900079,-9.908450,-6.913808,-7.931671,-6.943391,-9.967616,-8.979499,-7.991468,-4.997296,-4.009391,-3.021524,-3.036796,-5.058317,-5.073667,0.929592,1.917311,3.908159,2.889715,3.877519,2.859140,6.856338,7.844272,10.838502,12.829726,15.824183,20.825013,30.841591,33.836700,32.819695,25.784350,22.761691,21.745471,23.738790,21.719899,19.701217,16.679616,12.655066,11.639967,13.634308,14.625672,11.604738,8.583916,5.563177,2.542491,0.524940,1.516722,-4.513248,-10.543262,-10.554720,-12.572499,-9.574851,-10.589733,-12.607827,-14.626043,-12.631962,-13.647331,-12.656612,-16.681563,-14.688018,-16.707052,-17.723138,-17.736286,-18.752713,-16.759993,-13.764325,-16.787447,-20.813841,-22.834215,-24.854811,-25.872536,-23.881181,-18.880728,-1.843141,33.250402,76.369142,122.497947,179.662139,239.837392,268.918559,252.862384,199.693589,144.520501,90.351915,55.243283,43.206706,41.201642,35.184536,28.164659,19.138835,12.119415,4.097002,-8.940920,-13.954051,-20.973536,-24.983893,-25.985163,-18.961807,-14.947961,-15.949809,-23.973577,-36.010015,-46.040581,-49.049824,-46.040881,-41.026163,-41.027388,-42.032119,-42.034145,-42.036577,-44.045633,-40.036456,-39.036993,-34.025468,-38.042259,-42.059415,-44.070758,-42.070088,-39.066713,-40.076153,-41.085980,-41.093093,-42.103712,-38.099188,-40.113690,-39.119249,-38.125186,-39.137709,-41.153719,-42.167017,-40.171392,-35.166825,-37.184365,-39.202263,-44.229868,-44.242351,-40.242822,-41.259229,-40.269815,-42.290118,-40.298390,-36.300831,-37.319170,-37.334759,-35.344489,-38.370108,-38.386768,-37.400688,-35.411859,-33.423372,-36.450755,-37.472270,-35.484817,-29.485268,-30.507770,-29.524348,-32.553648,-32.573934,-30.588314,-23.587441,-24.611672,-22.626812,-22.648389,-20.663965,-19.682850,-16.695705,-11.702502,-11.724960,-10.744422,-10.767096,-11.792985,-9.809657,-5.820206,-4.840139,-0.850790,2.135442,-0.896964,3.092388,4.072442,7.058754,6.032696,5.006696,6.990073,10.979737,11.960177,9.931404,9.908946,10.889694,6.854998,4.826587,0.792004,2.776086,0.747756,-1.280567,-4.312011,-2.327949,-0.343909,-2.372311,-7.410065,-14.454110,-18.488965,-17.508450,-16.528104,-16.551027,-17.577219,-19.606690,-19.630131,-18.650652,-17.671352,-14.686003,-17.719454,-21.756185,-23.786907,-23.811639,-23.836600,-20.852462,-21.880964,-26.922115,-26.947977,-23.964770,-19.978685,-22.011450,-22.038208,-21.062069,-22.092352,-20.113520,-18.134881,-19.165746,-20.196795,-20.224930,-23.262588,-19.278704,-17.301224,-15.323911,-15.352965,-17.388387,-16.414647,-16.444175,-15.470752,-15.500588,-14.527463,-16.563808,-18.600312,-15.621447,-12.642733,-8.661031,-11.701180,-12.735223,-14.772498,-10.791257,-9.819450,-8.847737,-9.882329,-15.932564,-14.961185,-9.977512,-10.009483,-9.038441,-10.073706,-13.115287,-13.147666,-12.177061,-11.206574,-11.239305,-12.275253,-12.308211,-14.347506,-9.365172,-8.395367,-9.431862,-10.468448,-14.514464,-14.548181,-12.575820,-14.616017,-10.637699,-10.671921,-12.712465,-12.746913,-11.778373,-11.813057,-8.838526,-9.876519,-13.923936,-18.974597,-17.003673,-16.036023,-12.059198,-10.088709,-14.136975,-15.176048,-13.205939,-12.239067,-12.275422,-13.315005,-14.354717,-15.394567,-17.437675,-15.468512,-15.505718,-15.543074,-13.574360,-14.615106,-13.649773,-11.681462,-11.719483,-12.760727,-12.798984,-14.843584,-11.872779,-7.898979,-7.937693,-6.973374,-8.015342,-6.048058,-5.083942,0.895674,-1.149580,1.820704,7.800335,12.776931,20.762979,23.733679,23.695278,21.650887,19.606705,18.565821,21.537555,21.500168,17.450549,15.407318,11.358016,12.324371,11.284627,12.251210,13.217911,12.178521,6.123699,2.075156,-1.973366,0.999859,-2.045564,-5.091006,-9.139607,-11.182077,-8.209107,-9.248654,-8.282071,-11.328007,-13.370942,-15.414006,-12.441670,-10.472564,-12.515998,-14.559552,-13.593917,-14.634633,-14.672381,-12.704050,-12.742061,-15.789524,-14.824701,-14.863130,-14.901702,-19.955967,-26.013533,-31.068241,-28.098370,-9.079017,28.999332,79.115277,134.247532,203.424616,260.566346,286.614189,262.509312,206.307458,146.095154,92.906026,60.783096,48.722944,45.691249,36.641337,27.591777,20.548703,12.502718,6.463072,1.426599,-6.619190,-11.655714,-15.689241,-20.726028,-23.756796,-21.772245,-20.791013,-22.819311,-24.847828,-23.867256,-28.905573,-28.928619,-26.945725,-24.963091,-21.977588,-25.010955,-26.038343,-25.059763,-24.081425,-25.109538,-28.144113,-30.175849,-30.201656,-26.215317,-25.238559,-25.265154,-24.288882,-25.319065,-26.349491,-24.370842,-24.398648,-21.417360,-25.458046,-23.480319,-24.512148,-23.537994,-21.560956,-22.593456,-22.623064,-24.659109,-24.689173,-20.707036,-20.737537,-21.771348,-23.808479,-23.839619,-23.870989,-23.902590,-18.918873,-18.950886,-19.986192,-21.021690,-24.063610,-17.074666,-13.095215,-13.128329,-15.167789,-14.198066,-15.234700,-13.262151,-10.286621,-13.329847,-10.354544,-11.391780,-12.429125,-6.444823,-4.473021,-3.504372,-3.538867,-2.570286,-2.604840,-0.633199,3.344655,5.316322,5.281821,6.250480,6.216090,11.197308,15.175525,17.147668,20.123086,20.089370,20.055847,23.031846,26.008068,27.981430,27.948843,25.910306,25.878238,30.861968,32.836666,34.811681,36.787031,34.750298,32.713899,36.696474,37.670074,35.634707,35.605904,32.568115,31.536859,32.512126,29.475269,26.438695,24.405486,19.363183,15.324177,12.288428,14.268345,13.239071,11.206815,9.174668,6.139499,6.113718,5.084886,1.046775,1.021112,-2.013870,-4.045762,-2.065254,0.918344,-2.116708,-4.148670,-4.174453,-7.209605,-5.229278,-5.255221,-4.278105,-4.304140,-6.336436,-5.359464,-3.379434,-1.399436,-0.422562,-4.461240,-6.493741,-6.520086,-5.543384,-3.563626,-1.583902,-0.607304,-5.649369,-7.682159,-4.699475,-3.723056,-3.749782,-1.770326,-2.800215,-2.827021,-1.850746,-0.874488,-0.901348,-0.928217,-4.967533,-4.994459,-2.012103,-1.035987,2.949448,-0.086855,0.889279,-2.147017,0.835324,1.811454,2.787601,2.760666,-0.275571,-2.308702,-2.335636,0.646737,0.619787,0.592843,-4.449643,-4.476624,-3.500539,0.484842,0.457788,1.433849,-2.605624,-3.635794,-2.659780,-1.683791,-0.707819,-1.738072,-6.780781,-5.804898,-1.819741,0.159179,-0.871229,-1.901645,-3.935189,-5.968771,-5.996191,-4.017450,-2.038748,-3.069394,-2.093850,-6.133875,-7.164630,-4.183015,-3.207660,-3.235446,-6.272592,-6.300469,-4.322188,-3.347058,-5.381289,-9.421791,-10.453056,-9.478201,-1.481671,-0.506923,-5.550837,-8.588585,-9.620197,-9.648792,-8.674370,-3.687594,-3.716401,-5.751463,-5.780362,-8.818645,-8.847684,-6.870589,-5.896670,-6.929027,-6.958342,-7.990833,-8.020291,-6.043608,-2.060763,-0.084158,2.895556,3.869079,2.836420,3.810007,2.777412,1.744844,3.721622,6.701545,14.697080,20.686538,24.669977,29.656763,27.622067,25.587637,23.553454,21.519498,25.504408,26.480234,20.434548,14.389060,15.365477,16.342042,18.321875,18.295665,16.263412,12.225097,6.180680,8.161200,2.116921,-0.918008,-5.959166,-9.997271,-11.026144,-9.045794,-7.065531,-6.088446,-11.130077,-13.162487,-10.179476,-6.193453,-4.213709,-3.237115,-5.269882,-7.302699,-6.326258,-6.352987,-10.392216,-11.422217,-12.452327,-12.479448,-10.500470,-13.537141,-18.580163,-26.632692,-29.669930,-31.704344,-21.701748,7.359722,48.458579,97.582780,151.723469,210.881170,265.025355,285.066367,253.951536,196.758302,140.570074,88.395640,50.265593,37.213772,37.202735,32.176508,25.144372,18.112478,13.086979,7.058495,-0.976139,-12.020112,-21.057981,-22.071176,-21.078365,-16.073318,-17.087084,-23.116563,-30.149375,-31.163819,-28.166125,-26.171813,-25.180862,-27.199483,-32.227695,-35.249998,-33.257093,-31.264509,-33.284665,-30.289593,-31.307251,-30.318993,-27.324807,-27.340214,-25.349665,-26.368689,-26.384857,-29.410609,-28.424206,-28.441187,-28.458442,-26.469752,-28.493755,-27.508704,-24.517700,-23.533151,-24.555048,-26.580291,-26.599571,-25.615998,-24.632672,-23.649584,-22.666723,-20.680971,-21.704748,-20.722514,-20.743590,-18.758647,-20.786323,-20.807980,-20.829838,-21.855006,-16.861727,-15.881049,-14.900524,-14.923252,-13.943015,-11.959802,-8.973595,-9.999914,-9.020109,-9.043501,-8.063870,-9.090537,-6.104852,-5.125446,-9.161637,-9.185478,-3.190749,-3.214710,1.776847,2.755983,3.735145,9.729891,8.702964,7.676120,12.668008,15.653800,20.645961,20.622773,22.606003,21.580123,23.563779,26.550772,30.541130,30.519345,29.494744,28.470427,33.465043,33.444433,36.433474,34.407319,38.400152,40.387137,44.380731,46.368532,46.350562,42.320600,38.291046,34.261861,36.251664,37.238707,39.229218,40.216998,38.195837,37.178154,33.151500,27.118946,23.092873,19.067023,15.041357,13.022055,12.005988,17.008694,17.999126,17.986622,12.958743,7.930989,7.918860,6.903697,6.891710,5.876681,2.855488,-1.168786,-4.189962,-0.189411,2.808028,1.793056,-0.225008,-4.249294,-5.264291,-5.276230,-5.288220,-7.306480,-5.312372,-7.330754,-1.324329,-0.333465,-1.348824,-2.364195,-2.376480,-4.395007,-3.404248,-2.413521,-3.429037,-2.438366,-4.457049,-5.472664,-0.469674,0.520873,2.514534,-1.510438,-1.522987,-6.551098,-3.554395,-4.570165,-2.576650,-0.583160,2.413434,-1.611717,-3.630663,-2.640316,-0.646884,4.355870,7.352447,2.324218,-1.700879,-1.713554,3.289303,3.276643,2.260905,-0.761030,-0.773644,-0.786265,-1.802004,-1.814650,-1.827313,-1.839995,2.159745,3.150176,4.140638,4.128030,1.106133,-2.918863,-5.940777,-4.950311,-0.950563,4.052286,5.042735,1.017684,1.005082,1.995599,3.989245,4.979820,1.958004,0.942426,0.929967,4.929956,3.914444,0.892750,-2.128935,-6.153750,-1.150638,3.852464,4.843163,1.821471,-2.203313,-6.228118,-5.237436,0.768745,3.765604,4.756280,1.734563,0.719082,-3.305720,-1.311897,-4.333635,-1.336756,-1.349220,-2.364806,2.638243,4.631989,4.619560,3.604066,1.585496,-4.445496,-2.451654,1.548384,1.535997,-0.482593,-1.498079,-3.516688,0.483326,2.477126,-1.547709,-1.560119,0.433674,1.424362,0.408845,-0.606668,3.393360,8.396532,8.384236,5.362691,7.356747,8.347764,11.345081,11.333178,9.315165,6.294133,7.285599,15.298904,18.296807,22.297997,27.302511,30.301069,36.309248,36.299120,34.283122,31.264345,31.255198,26.230804,25.219101,22.201423,23.196397,22.185375,21.174568,21.167074,25.172222,30.180723,26.161528,19.133256,11.102060,5.077189,1.058587,-1.956896,-3.969288,-8.991046,-10.000453,-8.000628,-7.003989,0.011240,4.017140,1.001312,0.994822,-5.030316,-5.036845,-7.049642,-8.059397,-14.084778,-21.113404,-26.136015,-27.146438,-23.141576,-16.127607,-15.132452,-14.137443,-16.151899,-15.157182,-13.159501,-16.177495,-23.208084,-30.238897,-33.257562,-23.236123,-1.177592,32.918243,74.036164,120.170346,174.330563,235.514229,275.634862,277.639986,237.517182,183.353132,136.212618,90.076526,53.972399,31.912327,26.905427,20.895676,10.873688,5.867353,3.870404,2.876602,-1.126502,-10.145164,-18.160815,-21.161093,-18.142916,-16.128025,-18.125727,-25.139152,-27.137272,-30.138763,-31.134324,-31.127077,-33.126348,-34.122830,-35.119640,-32.104351,-29.089371,-29.084000,-30.082019,-33.086547,-36.091395,-31.071713,-29.061660,-33.070544,-35.073528,-36.073741,-35.068082,-35.065871,-33.057778,-32.053114,-31.048759,-33.054032,-33.053404,-32.049986
